timestamp,ecg_raw,ecg_voltage,temperature,ecg_change_percent,temp_change_celsius,bpm
1764364719.6361284,340,1.66015625,36.71794316154187,3.1092050850053647,-0.04845622939789962,55
1764364719.736893,335,1.6357421875,36.746255232295795,1.5928932455199916,-0.020144158643972787,56
1764364719.8378096,329,1.6064453125,36.83771545156647,-0.2266809618624559,0.0713160606266996,56
1764364719.9398367,331,1.6162109375,36.776577278834765,0.37984377393169333,0.010177887894997184,56
1764364720.0409434,321,1.5673828125,36.631638768030676,-2.652779905039053,-0.1347606229090914,57
1764364720.1422143,336,1.640625,36.90658464005869,1.896155613417066,0.14018524911892172,57
1764364720.2436945,337,1.6455078125,36.68590232703448,2.1994179813141406,-0.080497063905284,56
1764364720.345076,329,1.6064453125,36.74017628984971,-0.2266809618624559,-0.026223101090060652,57
1764364720.4463828,325,1.5869140625,36.859199969139254,-1.4397304334507544,0.09280057819948695,57
1764364720.547598,327,1.5966796875,36.6216412671466,-0.8332056976566051,-0.14475812379316721,57
1764364720.649086,325,1.5869140625,36.73371532361813,-1.4397304334507544,-0.03268406732163953,58
1764364720.7511373,338,1.650390625,36.697518920036124,2.5026803492112157,-0.06888047090364324,58
1764364720.8522701,325,1.5869140625,36.590764978836674,-1.4397304334507544,-0.1756344121030935,57
1764364720.9536228,337,1.6455078125,36.81323187595758,2.1994179813141406,0.04683248501780923,56
1764364721.0548375,321,1.5673828125,36.71578711103774,-2.652779905039053,-0.0506122799020261,55
1764364721.1556933,321,1.5673828125,36.68537677929229,-2.652779905039053,-0.0810226116474766,53
1764364721.2569358,333,1.6259765625,36.61122184852794,0.9863685097258426,-0.15517754241182757,52
1764364721.357951,337,1.6455078125,36.679432615624386,2.1994179813141406,-0.086966775315382,52
1764364721.4586926,321,1.5673828125,36.93763510150366,-2.652779905039053,0.17123571056389153,53
1764364721.5602367,340,1.66015625,36.75561703864835,3.1092050850053647,-0.010782352291414554,54
1764364721.661996,332,1.62109375,36.72079445220788,0.6831061418287679,-0.045604938731884204,54
1764364721.7633803,325,1.5869140625,36.95673699661836,-1.4397304334507544,0.19033760567859304,54
1764364721.864386,331,1.6162109375,36.930937042069694,0.37984377393169333,0.16453765112992613,54
1764364721.965423,325,1.5869140625,36.570968884293414,-1.4397304334507544,-0.1954305066463533,54
1764364722.0665245,325,1.5869140625,36.564597034193504,-1.4397304334507544,-0.20180235674626346,53
1764364722.1679187,333,1.6259765625,36.73047788499207,0.9863685097258426,-0.03592150594769805,52
1764364722.2691503,324,1.58203125,36.91652770937843,-1.7429928013478289,0.1501283184386608,53
1764364722.3704576,321,1.5673828125,36.79175192018398,-2.652779905039053,0.025352529244209165,54
1764364722.471194,338,1.650390625,36.6248400901867,2.5026803492112157,-0.141559300753066,55
1764364722.572352,327,1.5966796875,36.646385492996096,-0.8332056976566051,-0.12001389794367157,55
1764364722.6735668,332,1.62109375,36.92938490007084,0.6831061418287679,0.1629855091310759,55
1764364722.7749028,324,1.58203125,36.928608158167314,-1.7429928013478289,0.16220876722754696,55
1764364722.8759403,324,1.58203125,36.82695502962881,-1.7429928013478289,0.060555638689045566,54
1764364722.976991,333,1.6259765625,36.760990874373746,0.9863685097258426,-0.005408516566021149,53
1764364723.0779188,327,1.5966796875,36.86945390241646,-0.8332056976566051,0.10305451147669231,53
1764364723.179465,331,1.6162109375,36.890897672199046,0.37984377393169333,0.12449828125927809,53
1764364723.2814496,333,1.6259765625,36.81527147725761,0.9863685097258426,0.0488720863178429,53
1764364723.3827019,322,1.572265625,36.88461679418883,-2.349517537141978,0.11821740324906216,53
1764364723.4839928,325,1.5869140625,36.60026746595495,-1.4397304334507544,-0.16613192498481766,54
1764364723.58497,324,1.58203125,36.711928309506526,-1.7429928013478289,-0.054471081433241864,54
1764364723.687106,322,1.572265625,36.7318304202544,-2.349517537141978,-0.03456897068537046,55
1764364723.7879004,326,1.591796875,36.848621102202735,-1.1364680655536796,0.08222171126296729,56
1764364723.8890898,327,1.5966796875,36.804842551253216,-0.8332056976566051,0.03844316031344874,56
1764364723.9900005,327,1.5966796875,36.568483735442584,-0.8332056976566051,-0.1979156554971837,57
1764364724.091671,325,1.5869140625,36.63124721932321,-1.4397304334507544,-0.13515217161656068,57
1764364724.1931236,334,1.630859375,36.95512227201038,1.289630877622917,0.18872288107061053,57
1764364724.2941802,321,1.5673828125,36.687534536657935,-2.652779905039053,-0.07886485428183221,56
1764364724.3953135,324,1.58203125,36.59710806137181,-1.7429928013478289,-0.16929132956795456,56
1764364724.496583,323,1.5771484375,36.81240856323243,-2.0462551692449034,0.046009172292663436,56
1764364724.5976148,340,1.66015625,36.62706032314411,3.1092050850053647,-0.1393390677956603,57
1764364724.6989686,330,1.611328125,36.623928724130494,0.0765814060346187,-0.1424706668092739,57
1764364724.800091,326,1.591796875,36.85459126652058,-1.1364680655536796,0.08819187558081154,57
1764364724.9011867,334,1.630859375,36.8806310602996,1.289630877622917,0.11423166935983176,57
1764364725.0019972,322,1.572265625,36.7769405167302,-2.349517537141978,0.010541125790432204,57
1764364725.103872,320,1.5625,36.954783251968664,-2.956042272936127,0.18838386102889615,57
1764364725.2049317,325,1.5869140625,36.63629016236195,-1.4397304334507544,-0.13010922857781537,58
1764364725.3058796,337,1.6455078125,36.68564041194009,2.1994179813141406,-0.08075897899967543,58
1764364725.4071755,332,1.62109375,36.58515092927117,0.6831061418287679,-0.18124846166859498,59
1764364725.5084443,332,1.62109375,36.64200295051388,0.6831061418287679,-0.12439644042589038,60
1764364725.609517,327,1.5966796875,36.78377300304644,-0.8332056976566051,0.017373612106673875,60
1764364725.7111752,334,1.630859375,36.8900848154906,1.289630877622917,0.12368542455083542,61
1764364725.8125353,329,1.6064453125,36.57428732452896,-0.2266809618624559,-0.19211206641080736,62
1764364725.9137926,334,1.630859375,36.88886977119934,1.289630877622917,0.12247038025957124,62
1764364726.0156097,327,1.5966796875,36.7725161318561,-0.8332056976566051,0.006116740916333185,62
1764364726.116635,326,1.591796875,36.7993014832314,-1.1364680655536796,0.032902092291635654,63
1764364726.2176635,326,1.591796875,36.90437395800716,-1.1364680655536796,0.13797456706739553,63
1764364726.318845,334,1.630859375,36.706863384222515,1.289630877622917,-0.05953600671725212,64
1764364726.420162,333,1.6259765625,36.7186811978435,0.9863685097258426,-0.04771819309626579,65
1764364726.5211504,320,1.5625,36.5835304050929,-2.956042272936127,-0.1828689858468664,65
1764364726.6220613,325,1.5869140625,36.81132951118716,-1.4397304334507544,0.04493012024739329,65
1764364726.723298,325,1.5869140625,36.58191722134588,-1.4397304334507544,-0.18448216959388475,65
1764364726.824488,326,1.591796875,36.83401625810694,-1.1364680655536796,0.06761686716717463,65
1764364726.9257045,325,1.5869140625,36.71523830913155,-1.4397304334507544,-0.051161081808217546,65
1764364727.0270042,337,1.6455078125,36.635857451633065,2.1994179813141406,-0.13054193930670266,65
1764364727.1285043,337,1.6455078125,36.94431653775713,2.1994179813141406,0.17791714681736437,66
1764364727.2296836,340,1.66015625,36.85536252936381,3.1092050850053647,0.08896313842404169,66
1764364727.330876,338,1.650390625,36.67184357863013,2.5026803492112157,-0.09455581230963617,65
1764364727.431977,323,1.5771484375,36.79012672178505,-2.0462551692449034,0.02372733084528278,64
1764364727.5329723,333,1.6259765625,36.910387784501125,0.9863685097258426,0.14398839356135795,64
1764364727.634108,338,1.650390625,36.846415742595994,2.5026803492112157,0.08001635165622645,63
1764364727.7349064,324,1.58203125,36.735920033618946,-1.7429928013478289,-0.03047935732082152,62
1764364727.8358128,339,1.6552734375,36.90131662001728,2.8059427171082905,0.1349172290775158,62
1764364727.9372418,337,1.6455078125,36.82077417272464,2.1994179813141406,0.05437478178487254,63
1764364728.0385706,339,1.6552734375,36.88902582386804,2.8059427171082905,0.12262643292827136,63
1764364728.1395566,329,1.6064453125,36.59483882932407,-0.2266809618624559,-0.17156056161569921,63
1764364728.2407603,323,1.5771484375,36.82540174239995,-2.0462551692449034,0.059002351460179625,64
1764364728.341607,328,1.6015625,36.64318935957514,-0.5299433297595305,-0.12321003136462849,64
1764364728.4429631,325,1.5869140625,36.57363467177353,-1.4397304334507544,-0.1927647191662345,63
1764364728.544767,331,1.6162109375,36.76488705270338,0.37984377393169333,-0.0015123382363881888,64
1764364728.6457045,327,1.5966796875,36.68698381954122,-0.8332056976566051,-0.07941557139854893,65
1764364728.7466369,321,1.5673828125,36.66209462898196,-2.652779905039053,-0.10430476195780614,65
1764364728.8475575,331,1.6162109375,36.67617504893609,0.37984377393169333,-0.09022434200367968,66
1764364728.9487867,326,1.591796875,36.91720749434636,-1.1364680655536796,0.15080810340658957,66
1764364729.049713,321,1.5673828125,36.936916082715626,-2.652779905039053,0.17051669177585893,66
1764364729.15125,337,1.6455078125,36.90408846257781,2.1994179813141406,0.137689071638043,66
1764364729.252598,337,1.6455078125,36.85623788768994,2.1994179813141406,0.08983849675017552,66
1764364729.354098,332,1.62109375,36.60837062396074,0.6831061418287679,-0.15802876697902946,65
1764364729.454871,335,1.6357421875,36.68779282520143,1.5928932455199916,-0.07860656573834035,65
1764364729.556431,339,1.6552734375,36.58227114035005,2.8059427171082905,-0.1841282505897155,64
1764364729.657783,322,1.572265625,36.91508256871901,-2.349517537141978,0.14868317777924034,63
1764364729.7590742,336,1.640625,36.772487717150526,1.896155613417066,0.006088326210758055,63
1764364729.8605769,336,1.640625,36.72541952127208,1.896155613417066,-0.040979869667687296,62
1764364729.9619057,334,1.630859375,36.59692838624609,1.289630877622917,-0.16947100469367626,62
1764364730.0631166,321,1.5673828125,36.63559237775524,-2.652779905039053,-0.1308070131845298,62
1764364730.1645896,329,1.6064453125,36.80454143243301,-0.2266809618624559,0.03814204149324496,62
1764364730.2659216,340,1.66015625,36.63963454089375,3.1092050850053647,-0.12676485004601545,62
1764364730.3671067,327,1.5966796875,36.826437631097455,-0.8332056976566051,0.060038240157687994,62
1764364730.467941,325,1.5869140625,36.94570277703179,-1.4397304334507544,0.17930338609202323,62
1764364730.5692475,339,1.6552734375,36.88196907837845,2.8059427171082905,0.11556968743867913,63
1764364730.6703348,326,1.591796875,36.68498423888072,-1.1364680655536796,-0.08141515205904426,63
1764364730.7714968,337,1.6455078125,36.6645143067568,2.1994179813141406,-0.10188508418296749,64
1764364730.8723512,334,1.630859375,36.68269454332561,1.289630877622917,-0.08370484761415753,64
1764364730.9738297,334,1.630859375,36.9598755174981,1.289630877622917,0.19347612655833046,64
1764364731.0754218,340,1.66015625,36.648553824468756,3.1092050850053647,-0.11784556647101141,63
1764364731.1776118,339,1.6552734375,36.63543912365514,2.8059427171082905,-0.13096026728462817,63
1764364731.2788556,327,1.5966796875,36.858457039762925,-0.8332056976566051,0.09205764882315748,63
1764364731.3808613,334,1.630859375,36.918583884675655,1.289630877622917,0.15218449373588783,63
1764364731.4816914,326,1.591796875,36.66433725756181,-1.1364680655536796,-0.10206213337795589,63
1764364731.5825875,331,1.6162109375,36.86443812248085,0.37984377393169333,0.09803873154108089,63
1764364731.6837618,331,1.6162109375,36.58285287116719,0.37984377393169333,-0.18354651977257674,63
1764364731.784591,323,1.5771484375,36.799664713599704,-2.0462551692449034,0.0332653226599362,63
1764364731.8857908,320,1.5625,36.772492127481286,-2.956042272936127,0.006092736541518207,63
1764364731.9867706,329,1.6064453125,36.59268267257877,-0.2266809618624559,-0.17371671836099978,63
1764364732.0879068,329,1.6064453125,36.76774564835841,-0.2266809618624559,0.0013462574186391407,63
1764364732.1892414,321,1.5673828125,36.89777854460347,-2.652779905039053,0.13137915366370123,63
1764364732.2911854,323,1.5771484375,36.94180974023287,-2.0462551692449034,0.17541034929310229,63
1764364732.3921924,329,1.6064453125,36.922695657884915,-0.2266809618624559,0.15629626694514798,63
1764364732.4932656,337,1.6455078125,36.90379741538781,2.1994179813141406,0.13739802444803928,63
1764364732.5941722,330,1.611328125,36.744557660898586,0.0765814060346187,-0.021841730041181506,62
1764364732.695314,339,1.6552734375,36.76061138234363,2.8059427171082905,-0.005788008596134375,61
1764364732.796482,334,1.630859375,36.8299170636743,1.289630877622917,0.0635176727345339,60
1764364732.8975458,328,1.6015625,36.83424514063819,-0.5299433297595305,0.06784574969842083,59
1764364732.9988906,341,1.6650390625,36.848319928659144,3.4124674529024395,0.0819205377193768,58
1764364733.1003,341,1.6650390625,36.930205390122126,3.4124674529024395,0.16380599918235816,58
1764364733.201557,338,1.650390625,36.74444743359192,2.5026803492112157,-0.021951957347845052,58
1764364733.302851,339,1.6552734375,36.93070300571682,2.8059427171082905,0.16430361477705446,58
1764364733.404025,321,1.5673828125,36.8180021481635,-2.652779905039053,0.05160275722373342,58
1764364733.5053544,335,1.6357421875,36.76791332741479,1.5928932455199916,0.0015139364750211826,58
1764364733.6076417,338,1.650390625,36.625161124038826,2.5026803492112157,-0.14123826690094177,57
1764364733.7093341,338,1.650390625,36.5718984226498,2.5026803492112157,-0.19450096828996521,57
1764364733.8109136,327,1.5966796875,36.89064520764977,-0.8332056976566051,0.12424581671000112,58
1764364733.9124308,326,1.591796875,36.93838253062663,-1.1364680655536796,0.17198313968686563,58
1764364734.0138125,324,1.58203125,36.892643369750346,-1.7429928013478289,0.12624397881057803,59
1764364734.1149876,336,1.640625,36.75970592993117,1.896155613417066,-0.006693461008595136,60
1764364734.2158086,329,1.6064453125,36.62499634206742,-0.2266809618624559,-0.14140304887234834,60
1764364734.3167417,322,1.572265625,36.65523538566567,-2.349517537141978,-0.11116400527409809,60
1764364734.4183993,330,1.611328125,36.627998630473286,0.0765814060346187,-0.13840076046648164,60
1764364734.519861,326,1.591796875,36.91908135230263,-1.1364680655536796,0.15268196136286605,60
1764364734.6216187,331,1.6162109375,36.800117284475995,0.37984377393169333,0.03371789353622745,60
1764364734.7226589,323,1.5771484375,36.62323071850389,-2.0462551692449034,-0.14316867243587694,59
1764364734.8239872,336,1.640625,36.8718232383535,1.896155613417066,0.10542384741373212,59
1764364734.925438,328,1.6015625,36.872347808537995,-0.5299433297595305,0.1059484175982277,58
1764364735.0263264,324,1.58203125,36.75230773685839,-1.7429928013478289,-0.014091654081376248,58
1764364735.1275494,323,1.5771484375,36.86726277367635,-2.0462551692449034,0.10086338273658413,57
1764364735.2283812,329,1.6064453125,36.67320716918444,-0.2266809618624559,-0.0931922217553307,57
1764364735.3294518,325,1.5869140625,36.590782899306284,-1.4397304334507544,-0.17561649163348392,57
1764364735.430675,332,1.62109375,36.587490749076736,0.6831061418287679,-0.1789086418630319,58
1764364735.5319602,324,1.58203125,36.70485050007784,-1.7429928013478289,-0.061548890861928385,58
1764364735.63301,324,1.58203125,36.64059102838493,-1.7429928013478289,-0.12580836255483518,59
1764364735.7339914,325,1.5869140625,36.856191915426784,-1.4397304334507544,0.08979252448701658,59
1764364735.8349326,324,1.58203125,36.92220328314014,-1.7429928013478289,0.1558038922003746,58
1764364735.9362924,332,1.62109375,36.954124578056266,0.6831061418287679,0.18772518711649866,58
1764364736.037571,329,1.6064453125,36.84039747455778,-0.2266809618624559,0.07399808361801519,57
1764364736.1397302,332,1.62109375,36.727077673367674,0.6831061418287679,-0.03932171757209346,57
1764364736.2411525,329,1.6064453125,36.62057707476165,-0.2266809618624559,-0.14582231617811914,57
1764364736.3422196,332,1.62109375,36.56973943870422,0.6831061418287679,-0.19665995223554944,56
1764364736.44305,338,1.650390625,36.62263609852946,2.5026803492112157,-0.1437632924103056,56
1764364736.5442119,328,1.6015625,36.788304353565906,-0.5299433297595305,0.021904962626138058,55
1764364736.645252,332,1.62109375,36.86465892464948,0.6831061418287679,0.09825953370971519,54
1764364736.7462559,337,1.6455078125,36.87529478644272,2.1994179813141406,0.10889539550295524,54
1764364736.8474808,334,1.630859375,36.60121150399049,1.289630877622917,-0.16518788694927622,53
1764364736.9484146,335,1.6357421875,36.76219424017694,1.5928932455199916,-0.00420515076282868,52
1764364737.0497468,324,1.58203125,36.80737757031097,-1.7429928013478289,0.040978179371201406,52
1764364737.151012,326,1.591796875,36.869889720082014,-1.1364680655536796,0.10349032914224665,52
1764364737.2527916,330,1.611328125,36.84696904432808,0.0765814060346187,0.08056965338830935,52
1764364737.353948,335,1.6357421875,36.84573081495723,1.5928932455199916,0.07933142401746096,51
1764364737.455234,334,1.630859375,36.603951954696285,1.289630877622917,-0.16244743624348246,51
1764364737.5566142,327,1.5966796875,36.783398407383956,-0.8332056976566051,0.01699901644418844,51
1764364737.6577377,339,1.6552734375,36.595497884627854,2.8059427171082905,-0.17090150631191392,51
1764364737.7588549,331,1.6162109375,36.60198775912983,0.37984377393169333,-0.16441163180994067,50
1764364737.8601623,330,1.611328125,36.6794604380249,0.0765814060346187,-0.08693895291487053,50
1764364737.9609473,325,1.5869140625,36.614245897607226,-1.4397304334507544,-0.15215349333254125,50
1764364738.0617383,336,1.640625,36.74020760889746,1.896155613417066,-0.026191782042310763,50
1764364738.1628773,333,1.6259765625,36.59233133216176,0.9863685097258426,-0.1740680587780048,51
1764364738.263976,331,1.6162109375,36.919150208106124,0.37984377393169333,0.15275081716635697,51
1764364738.365317,328,1.6015625,36.69046140355693,-0.5299433297595305,-0.07593798738283652,52
1764364738.4667647,328,1.6015625,36.91942805766025,-0.5299433297595305,0.15302866672048054,52
1764364738.5680254,335,1.6357421875,36.70720693117425,1.5928932455199916,-0.059192459765519345,52
1764364738.6689522,339,1.6552734375,36.722942143415466,2.8059427171082905,-0.04345724752430158,52
1764364738.7704477,322,1.572265625,36.7048651638567,-2.349517537141978,-0.06153422708306522,52
1764364738.871795,327,1.5966796875,36.67535692519303,-0.8332056976566051,-0.0910424657467388,52
1764364738.9730477,340,1.66015625,36.70801041468418,3.1092050850053647,-0.05838897625558559,53
1764364739.0741572,324,1.58203125,36.63289898615683,-1.7429928013478289,-0.1335004047829358,52
1764364739.175642,329,1.6064453125,36.920592222917605,-0.2266809618624559,0.15419283197783784,52
1764364739.276397,338,1.650390625,36.8167606575975,2.5026803492112157,0.05036126665773111,52
1764364739.377625,338,1.650390625,36.77287443826376,2.5026803492112157,0.006475047323995398,51
1764364739.4789252,329,1.6064453125,36.889017895231376,-0.2266809618624559,0.12261850429160859,51
1764364739.5806243,329,1.6064453125,36.786859948264066,-0.2266809618624559,0.020460557324298634,51
1764364739.6821349,325,1.5869140625,36.90346873309166,-1.4397304334507544,0.13706934215188937,50
1764364739.7835052,334,1.630859375,36.618850862126365,1.289630877622917,-0.1475485288134024,49
1764364739.885243,333,1.6259765625,36.76421136347726,0.9863685097258426,-0.0021880274625090124,49
1764364739.9868553,341,1.6650390625,36.890647697577165,3.4124674529024395,0.12424830663739783,48
1764364740.0882397,321,1.5673828125,36.82306773602576,-2.652779905039053,0.0566683450859955,49
1764364740.1895428,322,1.572265625,36.69792195720334,-2.349517537141978,-0.06847743373642601,49
1764364740.2908869,329,1.6064453125,36.60755063969928,-0.2266809618624559,-0.15884875124049103,49
1764364740.3917735,326,1.591796875,36.71271335721298,-1.1364680655536796,-0.05368603372679104,48
1764364740.4925923,321,1.5673828125,36.9156644895871,-2.652779905039053,0.14926509864733362,48
1764364740.593861,325,1.5869140625,36.688133506958,-1.4397304334507544,-0.07826588398176426,48
1764364740.6947565,335,1.6357421875,36.90410758014963,1.5928932455199916,0.13770818920986017,47
1764364740.7957897,320,1.5625,36.706418242563664,-2.956042272936127,-0.05998114837610302,48
1764364740.8967786,333,1.6259765625,36.60833273449804,0.9863685097258426,-0.15806665644172568,48
1764364740.9980547,333,1.6259765625,36.95518125756761,0.9863685097258426,0.18878186662784202,49
1764364741.0994892,328,1.6015625,36.62055099932642,-0.5299433297595305,-0.14584839161334884,50
1764364741.2008846,321,1.5673828125,36.93420035225241,-2.652779905039053,0.16780096131264344,51
1764364741.3019323,328,1.6015625,36.73832452495432,-0.5299433297595305,-0.028074865985445285,51
1764364741.403089,341,1.6650390625,36.90551301902226,3.4124674529024395,0.13911362808249095,52
1764364741.5047042,336,1.640625,36.656728420296524,1.896155613417066,-0.10967097064324349,53
1764364741.6059496,326,1.591796875,36.723295575365896,-1.1364680655536796,-0.043103815573871884,55
1764364741.707146,331,1.6162109375,36.70707794082259,0.37984377393169333,-0.05932145011717438,56
1764364741.808207,336,1.640625,36.74196190073534,1.896155613417066,-0.024437490204427093,57
1764364741.909325,332,1.62109375,36.632387575989156,0.6831061418287679,-0.1340118149506111,57
1764364742.0102425,322,1.572265625,36.77546140535967,-2.349517537141978,0.009062014419903619,57
1764364742.111718,323,1.5771484375,36.59644519513504,-2.0462551692449034,-0.1699541958047277,57
1764364742.2127717,321,1.5673828125,36.89608949101191,-2.652779905039053,0.1296901000721391,57
1764364742.3140516,338,1.650390625,36.913777909689884,2.5026803492112157,0.14737851875011643,57
1764364742.4152513,334,1.630859375,36.63287266068863,1.289630877622917,-0.13352673025113404,58
1764364742.516239,341,1.6650390625,36.79492129281327,3.4124674529024395,0.028521901873503452,58
1764364742.6174972,330,1.611328125,36.74435539149966,0.0765814060346187,-0.022043999440107598,58
1764364742.719314,328,1.6015625,36.83954591309055,-0.5299433297595305,0.07314652215077899,58
1764364742.820783,333,1.6259765625,36.72688722775275,0.9863685097258426,-0.03951216318701967,57
1764364742.921783,329,1.6064453125,36.80864190522385,-0.2266809618624559,0.042242514284083654,57
1764364743.0226734,332,1.62109375,36.67889042492538,0.6831061418287679,-0.08750896601438996,57
1764364743.124004,327,1.5966796875,36.89414509770479,-0.8332056976566051,0.12774570676501895,57
1764364743.225165,322,1.572265625,36.61661826603429,-2.349517537141978,-0.14978112490548057,57
1764364743.3259656,336,1.640625,36.86016229490382,1.896155613417066,0.09376290396405551,57
1764364743.427104,340,1.66015625,36.66020009288699,3.1092050850053647,-0.10619929805277906,56
1764364743.5281494,339,1.6552734375,36.72065191905561,2.8059427171082905,-0.04574747188415529,55
1764364743.6295204,323,1.5771484375,36.705154612380625,-2.0462551692449034,-0.06124477855914279,56
1764364743.7313614,335,1.6357421875,36.56771251580694,1.5928932455199916,-0.1986868751328288,56
1764364743.8326414,335,1.6357421875,36.67307558393163,1.5928932455199916,-0.09332380700814014,57
1764364743.9339695,323,1.5771484375,36.58225132431514,-2.0462551692449034,-0.1841480666246298,57
1764364744.0353622,326,1.591796875,36.64021543975354,-1.1364680655536796,-0.12618395118622772,58
1764364744.136745,322,1.572265625,36.88929404572724,-2.349517537141978,0.12289465478747275,58
1764364744.2375686,337,1.6455078125,36.769052839257505,2.1994179813141406,0.0026534483177371726,57
1764364744.3387053,329,1.6064453125,36.77246827416715,-0.2266809618624559,0.006068883227385413,57
1764364744.4399507,326,1.591796875,36.91008986858734,-1.1364680655536796,0.14369047764757426,57
1764364744.541122,336,1.640625,36.79104125187842,1.896155613417066,0.02464186093865095,57
1764364744.6422005,323,1.5771484375,36.68773314011316,-2.0462551692449034,-0.07866625082660761,57
1764364744.7431443,326,1.591796875,36.65784212925062,-1.1364680655536796,-0.1085572616891497,58
1764364744.8441174,335,1.6357421875,36.93253057660134,1.5928932455199916,0.1661311856615697,58
1764364744.945005,324,1.58203125,36.59967115446626,-1.7429928013478289,-0.1667282364735101,60
1764364745.046155,337,1.6455078125,36.75610151342658,2.1994179813141406,-0.01029787751318878,61
1764364745.1472979,335,1.6357421875,36.684426420483284,1.5928932455199916,-0.08197297045648355,62
1764364745.2486522,340,1.66015625,36.834779213265705,3.1092050850053647,0.06837982232593731,63
1764364745.3500223,320,1.5625,36.90001548240804,-2.956042272936127,0.13361609146826936,63
1764364745.452505,328,1.6015625,36.715810493263724,-0.5299433297595305,-0.05058889767604313,63
1764364745.5537703,341,1.6650390625,36.65091320465599,3.4124674529024395,-0.11548618628377483,62
1764364745.6547067,334,1.630859375,36.7394719194275,1.289630877622917,-0.026927471512266266,63
1764364745.7557163,327,1.5966796875,36.930770172293535,-0.8332056976566051,0.16437078135376737,63
1764364745.8571486,334,1.630859375,36.62837293128958,1.289630877622917,-0.13802645965018456,64
1764364745.9584446,340,1.66015625,36.943397651054575,3.1092050850053647,0.17699826011480724,65
1764364746.0600371,332,1.62109375,36.62353248441632,0.6831061418287679,-0.14286690652344447,66
1764364746.161199,321,1.5673828125,36.62689206918557,-2.652779905039053,-0.1395073217541949,66
1764364746.2629256,330,1.611328125,36.93171799084612,0.0765814060346187,0.16531859990634956,66
1764364746.3639896,331,1.6162109375,36.80884665037801,0.37984377393169333,0.04244725943824079,66
1764364746.465287,326,1.591796875,36.85603028202088,-1.1364680655536796,0.08963089108111433,67
1764364746.566592,339,1.6552734375,36.87666689136741,2.8059427171082905,0.11026750042763922,67
1764364746.667575,324,1.58203125,36.711189739987844,-1.7429928013478289,-0.055209650951923095,67
1764364746.7688828,331,1.6162109375,36.817859993582395,0.37984377393169333,0.05146060264262786,68
1764364746.8700402,325,1.5869140625,36.843120892933634,-1.4397304334507544,0.07672150199386607,68
1764364746.9716988,339,1.6552734375,36.58604181380635,2.8059427171082905,-0.18035757713342093,68
1764364747.072862,340,1.66015625,36.81662703969073,3.1092050850053647,0.05022764875096186,68
1764364747.174005,328,1.6015625,36.95102907726856,-0.5299433297595305,0.1846296863287904,67
1764364747.2749681,336,1.640625,36.59115943742817,1.896155613417066,-0.17523995351159982,66
1764364747.3764005,337,1.6455078125,36.834852556429865,2.1994179813141406,0.06845316549009794,65
1764364747.477441,337,1.6455078125,36.90667630078274,2.1994179813141406,0.14027690984297436,65
1764364747.579155,322,1.572265625,36.63164317641167,-2.349517537141978,-0.13475621452809605,64
1764364747.680682,323,1.5771484375,36.86612675380868,-2.0462551692449034,0.09972736286891148,65
1764364747.7821152,340,1.66015625,36.67749608658893,3.1092050850053647,-0.08890330435083627,65
1764364747.8834953,338,1.650390625,36.62612540995745,2.5026803492112157,-0.14027398098231458,66
1764364747.9859977,326,1.591796875,36.72485466625393,-1.1364680655536796,-0.04154472468583492,67
1764364748.0871341,326,1.591796875,36.77519946539814,-1.1364680655536796,0.008800074458370943,68
1764364748.188173,326,1.591796875,36.90719184574801,-1.1364680655536796,0.14079245480824198,68
1764364748.2889583,339,1.6552734375,36.7860173946792,2.8059427171082905,0.019618003739431344,68
1764364748.3904645,327,1.5966796875,36.671852099400496,-0.8332056976566051,-0.09454729153927133,68
1764364748.491428,320,1.5625,36.61583024267876,-2.956042272936127,-0.1505691482610061,68
1764364748.592641,338,1.650390625,36.71073705503735,2.5026803492112157,-0.05566233590241865,68
1764364748.6934974,329,1.6064453125,36.70664075845904,-0.2266809618624559,-0.059758632480729545,69
1764364748.7947235,339,1.6552734375,36.78452606169172,2.8059427171082905,0.018126670751954066,69
1764364748.8956878,340,1.66015625,36.63813506155693,3.1092050850053647,-0.12826432938283716,69
1764364748.997167,322,1.572265625,36.68076649546824,-2.349517537141978,-0.08563289547152664,69
1764364749.0986936,328,1.6015625,36.816855988778535,-0.5299433297595305,0.050456597838767436,69
1764364749.19989,323,1.5771484375,36.782954212778954,-2.0462551692449034,0.016554821839186218,69
1764364749.3010538,323,1.5771484375,36.56324343910185,-2.0462551692449034,-0.20315595183791402,69
1764364749.4022102,337,1.6455078125,36.56204364139933,2.1994179813141406,-0.20435574954044,68
1764364749.5030558,333,1.6259765625,36.67401020264787,0.9863685097258426,-0.09238918829189657,68
1764364749.6040335,333,1.6259765625,36.62639638887911,0.9863685097258426,-0.1400030020606593,68
1764364749.706111,339,1.6552734375,36.70324783098485,2.8059427171082905,-0.0631515599549175,68
1764364749.8076355,325,1.5869140625,36.84538409017851,-1.4397304334507544,0.07898469923874529,68
1764364749.9084604,324,1.58203125,36.91492486935456,-1.7429928013478289,0.1485254784147898,68
1764364750.0096922,325,1.5869140625,36.90019328227945,-1.4397304334507544,0.13379389133968544,68
1764364750.110927,322,1.572265625,36.897237501992336,-2.349517537141978,0.1308381110525687,68
1764364750.2123182,330,1.611328125,36.91989652989387,0.0765814060346187,0.15349713895410133,67
1764364750.3134475,327,1.5966796875,36.92415880921931,-0.8332056976566051,0.15775941827953943,67
1764364750.4143324,328,1.6015625,36.708144379004295,-0.5299433297595305,-0.05825501193547211,67
1764364750.5164173,320,1.5625,36.71629970514778,-2.956042272936127,-0.05009968579198443,67
1764364750.6175003,327,1.5966796875,36.642166786771696,-0.8332056976566051,-0.12423260416807125,67
1764364750.7187502,336,1.640625,36.56895952809507,1.896155613417066,-0.19743986284469628,67
1764364750.8201199,324,1.58203125,36.8453488274764,-1.7429928013478289,0.07894943653663233,66
1764364750.9210901,339,1.6552734375,36.86283667764054,2.8059427171082905,0.09643728670076968,66
1764364751.0222785,323,1.5771484375,36.72292556527537,-2.0462551692449034,-0.04347382566439961,65
1764364751.1231139,328,1.6015625,36.83280514405255,-0.5299433297595305,0.0664057531127824,64
1764364751.2242372,339,1.6552734375,36.82475590693506,2.8059427171082905,0.05835651599529257,64
1764364751.3253453,331,1.6162109375,36.697170754235586,0.37984377393169333,-0.06922863670418167,64
1764364751.426462,334,1.630859375,36.64741553447916,1.289630877622917,-0.11898385646060916,64
1764364751.5276916,323,1.5771484375,36.56721193131435,-2.0462551692449034,-0.19918745962542062,64
1764364751.6287696,327,1.5966796875,36.828915017726544,-0.8332056976566051,0.06251562678677658,65
1764364751.730124,327,1.5966796875,36.7465654696492,-0.8332056976566051,-0.01983392129056938,66
1764364751.83134,327,1.5966796875,36.80838618777827,-0.8332056976566051,0.041986796838500595,65
1764364751.932628,332,1.62109375,36.772702732455244,0.6831061418287679,0.006303341515476291,65
1764364752.0338566,330,1.611328125,36.653728612693,0.0765814060346187,-0.11267077824676619,64
1764364752.1350157,337,1.6455078125,36.72489263350676,2.1994179813141406,-0.04150675743300525,63
1764364752.2362483,332,1.62109375,36.91699961388211,0.6831061418287679,0.15060022294234443,62
1764364752.3372612,326,1.591796875,36.8184860658555,-1.1364680655536796,0.05208667491573493,62
1764364752.4381394,340,1.66015625,36.932220511048214,3.1092050850053647,0.16582112010844696,63
1764364752.539324,334,1.630859375,36.67646008306557,1.289630877622917,-0.08993930787419657,62
1764364752.6407976,337,1.6455078125,36.715699394807395,2.1994179813141406,-0.05069999613237286,62
1764364752.741599,338,1.650390625,36.9205189745835,2.5026803492112157,0.1541195836437339,61
1764364752.8425143,335,1.6357421875,36.74665019629875,1.5928932455199916,-0.019749194641015322,61
1764364752.943755,339,1.6552734375,36.56495702900276,2.8059427171082905,-0.20144236193700493,60
1764364753.0449374,333,1.6259765625,36.648721820702626,0.9863685097258426,-0.11767757023714154,60
1764364753.1461558,338,1.650390625,36.68388600828797,2.5026803492112157,-0.08251338265179697,60
1764364753.2476206,337,1.6455078125,36.58676902492322,2.1994179813141406,-0.17963036601654636,60
1764364753.3485143,336,1.640625,36.7610936744523,1.896155613417066,-0.005305716487470136,61
1764364753.44992,325,1.5869140625,36.73259642514762,-1.4397304334507544,-0.03380296579214814,61
1764364753.551049,337,1.6455078125,36.578783239491415,2.1994179813141406,-0.18761615144835275,61
1764364753.6522317,322,1.572265625,36.67704693514273,-2.349517537141978,-0.08935245579704088,61
1764364753.753453,329,1.6064453125,36.79638894256522,-0.2266809618624559,0.029989551625455135,61
1764364753.854591,337,1.6455078125,36.936709093853366,2.1994179813141406,0.17030970291359893,61
1764364753.9559054,334,1.630859375,36.7608376154085,1.289630877622917,-0.005561775531269575,61
1764364754.0571153,340,1.66015625,36.78677648807951,3.1092050850053647,0.020377097139743228,62
1764364754.1589224,340,1.66015625,36.82898782455269,3.1092050850053647,0.06258843361292321,62
1764364754.2602327,329,1.6064453125,36.93464052614943,-0.2266809618624559,0.16824113520966222,61
1764364754.3614457,334,1.630859375,36.58018604261693,1.289630877622917,-0.18621334832283765,60
1764364754.4625025,333,1.6259765625,36.740670077311115,0.9863685097258426,-0.02572931362865205,59
1764364754.563405,323,1.5771484375,36.656713380233214,-2.0462551692449034,-0.10968601070655382,58
1764364754.66459,333,1.6259765625,36.85435552575377,0.9863685097258426,0.08795613481400011,58
1764364754.765595,325,1.5869140625,36.60368081580739,-1.4397304334507544,-0.16271857513238075,58
1764364754.8667166,322,1.572265625,36.74015665664247,-2.349517537141978,-0.026242734297298398,58
1764364754.967527,339,1.6552734375,36.83727077647635,2.8059427171082905,0.07087138553658434,58
1764364755.0691953,330,1.611328125,36.713146783196585,0.0765814060346187,-0.05325260774318252,58
1764364755.1704764,335,1.6357421875,36.56087689095908,1.5928932455199916,-0.20552249998068817,57
1764364755.2719278,336,1.640625,36.896947369564394,1.896155613417066,0.13054797862462664,57
1764364755.3728948,326,1.591796875,36.696326179321076,-1.1364680655536796,-0.07007321161869129,57
1764364755.4739773,336,1.640625,36.69292183769116,1.896155613417066,-0.07347755324860827,58
1764364755.5750046,332,1.62109375,36.62352701890983,0.6831061418287679,-0.14287237202993452,58
1764364755.676497,332,1.62109375,36.77221896130164,0.6831061418287679,0.005819570361872195,59
1764364755.7780814,326,1.591796875,36.619108044186426,-1.1364680655536796,-0.14729134675334166,59
1764364755.8792892,338,1.650390625,36.733889483603825,2.5026803492112157,-0.0325099073359425,60
1764364755.9807887,334,1.630859375,36.78784173324804,1.289630877622917,0.021442342308269247,60
1764364756.0820024,328,1.6015625,36.70643611055382,-0.5299433297595305,-0.05996328038595067,61
1764364756.1831198,327,1.5966796875,36.717670770240126,-0.8332056976566051,-0.04872862069964157,61
1764364756.2842135,320,1.5625,36.64974068743202,-2.956042272936127,-0.11665870350774554,61
1764364756.3861284,328,1.6015625,36.72875495395382,-0.5299433297595305,-0.03764443698594988,62
1764364756.4885755,327,1.5966796875,36.829104362328394,-0.8332056976566051,0.06270497138862652,62
1764364756.5897255,322,1.572265625,36.82890090361246,-2.349517537141978,0.06250151267268933,62
1764364756.6909404,327,1.5966796875,36.831121126359214,-0.8332056976566051,0.0647217354194467,62
1764364756.792405,326,1.591796875,36.73052309035691,-1.1364680655536796,-0.0358763005828564,62
1764364756.8936808,328,1.6015625,36.72426911935536,-0.5299433297595305,-0.042130271584404966,62
1764364756.99487,327,1.5966796875,36.70954672975015,-0.8332056976566051,-0.05685266118961607,61
1764364757.095798,340,1.66015625,36.86354999907864,3.1092050850053647,0.09715060813887533,61
1764364757.1974702,321,1.5673828125,36.654297762516244,-2.652779905039053,-0.11210162842352389,60
1764364757.298869,329,1.6064453125,36.80610077905135,-0.2266809618624559,0.03970138811158108,59
1764364757.3996851,339,1.6552734375,36.69475046609614,2.8059427171082905,-0.07164892484362895,59
1764364757.5006692,328,1.6015625,36.77319253450374,-0.5299433297595305,0.006793143563974979,58
1764364757.6014771,339,1.6552734375,36.65474080684692,2.8059427171082905,-0.11165858409285079,58
1764364757.703098,337,1.6455078125,36.79788755017047,2.1994179813141406,0.03148815923070458,58
1764364757.8062785,324,1.58203125,36.66441794091858,-1.7429928013478289,-0.10198145002118508,59
1764364757.9071465,332,1.62109375,36.76706589851487,0.6831061418287679,0.0006665075751044469,60
1764364758.0086272,329,1.6064453125,36.56006257816595,-0.2266809618624559,-0.2063368127738201,60
1764364758.1098156,335,1.6357421875,36.84631025615573,1.5928932455199916,0.07991086521596458,61
1764364758.211259,331,1.6162109375,36.885129814047744,0.37984377393169333,0.11873042310797643,62
1764364758.312607,335,1.6357421875,36.838503188055476,1.5928932455199916,0.0721037971157088,61
1764364758.414033,337,1.6455078125,36.728280094623045,2.1994179813141406,-0.038119296316722284,60
1764364758.516417,338,1.650390625,36.58597316329131,2.5026803492112157,-0.18042622764846072,60
1764364758.61748,327,1.5966796875,36.69584325123392,-0.8332056976566051,-0.07055613970585028,59
1764364758.7188191,321,1.5673828125,36.86120867378457,-2.652779905039053,0.09480928284479972,58
1764364758.8198736,331,1.6162109375,36.63273849758148,0.37984377393169333,-0.13366089335828946,57
1764364758.9212227,330,1.611328125,36.70606790303363,0.0765814060346187,-0.06033148790614007,56
1764364759.0222194,324,1.58203125,36.72466335917907,-1.7429928013478289,-0.04173603176069918,55
1764364759.1233306,340,1.66015625,36.827709945267614,3.1092050850053647,0.06131055432784649,55
1764364759.224743,334,1.630859375,36.81679939104821,1.289630877622917,0.05040000010843926,55
1764364759.3259304,333,1.6259765625,36.67076534553322,0.9863685097258426,-0.0956340454065483,56
1764364759.4268208,334,1.630859375,36.720375963505596,1.289630877622917,-0.04602342743417154,56
1764364759.5281081,333,1.6259765625,36.79455638751337,0.9863685097258426,0.028156996573599713,57
1764364759.6291077,335,1.6357421875,36.66210574836546,1.5928932455199916,-0.10429364257430507,58
1764364759.7302005,340,1.66015625,36.59034362697265,3.1092050850053647,-0.17605576396712053,58
1764364759.832095,333,1.6259765625,36.846659270120064,0.9863685097258426,0.08025987918029642,60
1764364759.9330013,330,1.611328125,36.696162285875616,0.0765814060346187,-0.0702371050641517,61
1764364760.0342689,338,1.650390625,36.76007453976529,2.5026803492112157,-0.006324851174476009,62
1764364760.1354525,333,1.6259765625,36.91763328586533,0.9863685097258426,0.15123389492556072,63
1764364760.236675,340,1.66015625,36.720046745447995,3.1092050850053647,-0.04635264549177265,64
1764364760.3375115,320,1.5625,36.70185602988322,-2.956042272936127,-0.06454336105655045,63
1764364760.4387357,332,1.62109375,36.7958656849174,0.6831061418287679,0.02946629397763445,62
1764364760.540127,323,1.5771484375,36.73901507900148,-2.0462551692449034,-0.02738431193828461,62
1764364760.641888,335,1.6357421875,36.63010946087082,1.5928932455199916,-0.13628993006894774,61
1764364760.7435288,327,1.5966796875,36.735064584014204,-0.8332056976566051,-0.031334806925563896,60
1764364760.8445399,338,1.650390625,36.92498300713059,2.5026803492112157,0.15858361619082473,59
1764364760.9457324,329,1.6064453125,36.57567469438204,-0.2266809618624559,-0.19072469655773006,60
1764364761.0465264,322,1.572265625,36.87402399797474,-2.349517537141978,0.10762460703497112,60
1764364761.1476102,330,1.611328125,36.59640834150993,0.0765814060346187,-0.16999104942983934,61
1764364761.248607,324,1.58203125,36.87815462046376,-1.7429928013478289,0.1117552295239932,62
1764364761.349628,324,1.58203125,36.561004741589045,-1.7429928013478289,-0.2053946493507226,63
1764364761.4503546,336,1.640625,36.61806475155474,1.896155613417066,-0.1483346393850269,64
1764364761.551421,340,1.66015625,36.89475344129387,3.1092050850053647,0.12835405035410474,64
1764364761.6525338,339,1.6552734375,36.91581940848153,2.8059427171082905,0.1494200175417646,65
1764364761.7538178,325,1.5869140625,36.82227472725364,-1.4397304334507544,0.05587533631387487,65
1764364761.8570418,320,1.5625,36.56937807393082,-2.956042272936127,-0.19702131700894654,65
1764364761.958375,340,1.66015625,36.76218845388332,3.1092050850053647,-0.004210937056448927,66
1764364762.0597074,331,1.6162109375,36.823712124840405,0.37984377393169333,0.057312733900637625,65
1764364762.1610243,322,1.572265625,36.746283314306005,-2.349517537141978,-0.020116076633762248,65
1764364762.2620442,323,1.5771484375,36.95291411431607,-2.0462551692449034,0.18651472337630537,64
1764364762.3635762,336,1.640625,36.895022913855364,1.896155613417066,0.1286235229155963,64
1764364762.4648573,341,1.6650390625,36.84863445579551,3.4124674529024395,0.08223506485574461,63
1764364762.566409,335,1.6357421875,36.944725821770845,1.5928932455199916,0.1783264308310777,63
1764364762.6675508,331,1.6162109375,36.62193696788135,0.37984377393169333,-0.14446242305842105,63
1764364762.768631,330,1.611328125,36.648937156253474,0.0765814060346187,-0.11746223468629324,63
1764364762.8697774,338,1.650390625,36.630912619865065,2.5026803492112157,-0.13548677107470297,63
1764364762.9705596,329,1.6064453125,36.79671517747575,-0.2266809618624559,0.030315786535979328,64
1764364763.073322,329,1.6064453125,36.843144735905064,-0.2266809618624559,0.07674534496529617,64
1764364763.1746118,332,1.62109375,36.819688240041295,0.6831061418287679,0.05328884910152709,64
1764364763.2757926,329,1.6064453125,36.922304145002116,-0.2266809618624559,0.15590475406234816,64
1764364763.3769357,322,1.572265625,36.70393812996169,-2.349517537141978,-0.06246126097807547,65
1764364763.4780734,327,1.5966796875,36.80405365926928,-0.8332056976566051,0.03765426832951135,65
1764364763.579297,327,1.5966796875,36.59660081694966,-0.8332056976566051,-0.16979857399010712,65
1764364763.680435,334,1.630859375,36.90089688866509,1.289630877622917,0.13449749772532016,65
1764364763.7815337,332,1.62109375,36.936792638852985,0.6831061418287679,0.17039324791321775,64
1764364763.882933,321,1.5673828125,36.78698968515385,-2.652779905039053,0.020590294214080984,64
1764364763.9840539,332,1.62109375,36.657968087302265,0.6831061418287679,-0.1084313036375022,63
1764364764.08553,322,1.572265625,36.787814238325694,-2.349517537141978,0.021414847385926805,63
1764364764.186732,338,1.650390625,36.765769460196886,2.5026803492112157,-0.0006299307428818679,63
1764364764.2879848,323,1.5771484375,36.83699939560284,-2.0462551692449034,0.07060000466307059,63
1764364764.389297,333,1.6259765625,36.61297782827396,0.9863685097258426,-0.1534215626658053,62
1764364764.4903069,332,1.62109375,36.86676873491566,0.6831061418287679,0.10036934397589192,62
1764364764.5917232,336,1.640625,36.68574556634268,1.896155613417066,-0.08065382459708559,61
1764364764.6930234,321,1.5673828125,36.775379402505884,-2.652779905039053,0.008980011566116275,59
1764364764.794038,325,1.5869140625,36.86327646170603,-1.4397304334507544,0.0968770707662614,59
1764364764.895172,335,1.6357421875,36.82937698891277,1.5928932455199916,0.06297759797300273,59
1764364764.9962842,334,1.630859375,36.633226823445504,1.289630877622917,-0.1331725674942632,59
1764364765.0973678,331,1.6162109375,36.851859392188324,0.37984377393169333,0.08546000124855624,60
1764364765.1988983,330,1.611328125,36.58009000842745,0.0765814060346187,-0.1863093825123201,60
1764364765.3001916,339,1.6552734375,36.787274651064216,2.8059427171082905,0.020875260124448403,61
1764364765.4018028,331,1.6162109375,36.59240699080721,0.37984377393169333,-0.1739924001325548,60
1764364765.502862,336,1.640625,36.706747490232566,1.896155613417066,-0.05965190070720183,60
1764364765.6040606,332,1.62109375,36.92734528391665,0.6831061418287679,0.16094589297688344,59
1764364765.7054102,341,1.6650390625,36.8325692138632,3.4124674529024395,0.06616982292343465,58
1764364765.8064134,324,1.58203125,36.74068989696579,-1.7429928013478289,-0.02570949397397726,58
1764364765.907745,340,1.66015625,36.691051612092195,3.1092050850053647,-0.07534777884757204,59
1764364766.0088248,325,1.5869140625,36.79152822010675,-1.4397304334507544,0.025128829166980893,61
1764364766.1096947,323,1.5771484375,36.833299129657824,-2.0462551692449034,0.06689973871805677,62
1764364766.210972,326,1.591796875,36.90253107008593,-1.1364680655536796,0.13613167914616042,63
1764364766.312011,340,1.66015625,36.62019433630988,3.1092050850053647,-0.1462050546298883,63
1764364766.4131699,333,1.6259765625,36.90418368772618,0.9863685097258426,0.13778429678641402,64
1764364766.514633,340,1.66015625,36.90198341517499,3.1092050850053647,0.13558402423522153,64
1764364766.616033,329,1.6064453125,36.85434259930002,-0.2266809618624559,0.08794320836025094,64
1764364766.7170124,339,1.6552734375,36.92195735976437,2.8059427171082905,0.1555579688246027,65
1764364766.8181012,339,1.6552734375,36.795207697425354,2.8059427171082905,0.028808306485586854,65
1764364766.91921,337,1.6455078125,36.61986314122378,2.1994179813141406,-0.1465362497159859,65
1764364767.020586,325,1.5869140625,36.882251964139165,-1.4397304334507544,0.11585257319939757,65
1764364767.1220255,330,1.611328125,36.86408824033129,0.0765814060346187,0.097688849391524,66
1764364767.2232983,334,1.630859375,36.60706754519851,1.289630877622917,-0.15933184574125647,66
1764364767.324668,338,1.650390625,36.93522798427651,2.5026803492112157,0.16882859333674105,66
1764364767.426143,328,1.6015625,36.71359570766302,-0.5299433297595305,-0.05280368327674978,66
1764364767.5274196,332,1.62109375,36.571267097017724,0.6831061418287679,-0.19513229392204323,67
1764364767.6287315,335,1.6357421875,36.79400993403131,1.5928932455199916,0.027610543091540762,67
1764364767.7298222,337,1.6455078125,36.737241475030636,2.1994179813141406,-0.029157915909131304,68
1764364767.8310814,339,1.6552734375,36.82361091717785,2.8059427171082905,0.05721152623808479,68
1764364767.9329016,325,1.5869140625,36.717526306548564,-1.4397304334507544,-0.04887308439120375,68
1764364768.03377,331,1.6162109375,36.94845055432045,0.37984377393169333,0.1820511633806845,67
1764364768.1351092,324,1.58203125,36.90952313223785,-1.7429928013478289,0.14312374129808347,66
1764364768.2366974,325,1.5869140625,36.59280950704994,-1.4397304334507544,-0.1735898838898251,65
1764364768.3383882,337,1.6455078125,36.88092193947111,2.1994179813141406,0.11452254853134036,65
1764364768.4396198,332,1.62109375,36.88859232576062,0.6831061418287679,0.12219293482085192,64
1764364768.5405464,324,1.58203125,36.872768435402165,-1.7429928013478289,0.10636904446239726,64
1764364768.642185,341,1.6650390625,36.78551122556836,3.4124674529024395,0.01911183462858901,63
1764364768.7431893,340,1.66015625,36.915507590690204,3.1092050850053647,0.14910819975043665,63
1764364768.8442106,323,1.5771484375,36.66605607472794,-2.0462551692449034,-0.10034331621182702,62
1764364768.945214,332,1.62109375,36.604281269915276,0.6831061418287679,-0.1621181210244913,63
1764364769.046431,339,1.6552734375,36.56149167284606,2.8059427171082905,-0.20490771809370756,63
1764364769.1473086,334,1.630859375,36.618829235477854,1.289630877622917,-0.14757015546191354,63
1764364769.2487576,329,1.6064453125,36.70629047857018,-0.2266809618624559,-0.06010891236958571,64
1764364769.349778,334,1.630859375,36.94602879229021,1.289630877622917,0.17962940135043937,64
1764364769.450887,324,1.58203125,36.8818591749974,-1.7429928013478289,0.11545978405763435,64
1764364769.552007,331,1.6162109375,36.87185430416628,0.37984377393169333,0.10545491322650946,65
1764364769.653315,333,1.6259765625,36.95180609607364,0.9863685097258426,0.1854067051338717,65
1764364769.755519,329,1.6064453125,36.70135255950622,-0.2266809618624559,-0.06504683143354839,65
1764364769.8567283,328,1.6015625,36.59741473874323,-0.5299433297595305,-0.16898465219653502,65
1764364769.957492,322,1.572265625,36.79842143325129,-2.349517537141978,0.0320220423115245,65
1764364770.0584774,336,1.640625,36.69371158035317,1.896155613417066,-0.07268781058660068,65
1764364770.1599538,335,1.6357421875,36.64586198335768,1.5928932455199916,-0.1205374075820842,65
1764364770.2616668,323,1.5771484375,36.750807851924684,-2.0462551692449034,-0.01559153901508381,63
1764364770.362839,323,1.5771484375,36.67054534793388,-2.0462551692449034,-0.09585404300588607,64
1764364770.463999,322,1.572265625,36.728845390803194,-2.349517537141978,-0.03755400013657351,64
1764364770.5651188,330,1.611328125,36.826186914298084,0.0765814060346187,0.05978752335831672,64
1764364770.6661289,334,1.630859375,36.87991424230962,1.289630877622917,0.11351485136984962,63
1764364770.7674143,331,1.6162109375,36.69635396611192,0.37984377393169333,-0.07004542482784615,65
1764364770.868895,321,1.5673828125,36.61262812322498,-2.652779905039053,-0.153771267714788,65
1764364770.969825,327,1.5966796875,36.80636189525809,-0.8332056976566051,0.03996250431832493,65
1764364771.0707333,324,1.58203125,36.64611990560747,-1.7429928013478289,-0.12027948533229704,65
1764364771.1720457,322,1.572265625,36.75343775737307,-2.349517537141978,-0.012961633566696662,66
1764364771.272795,332,1.62109375,36.92420423048877,0.6831061418287679,0.15780483954900149,66
1764364771.373734,338,1.650390625,36.636611851348114,2.5026803492112157,-0.12978753959165346,66
1764364771.4749885,329,1.6064453125,36.85896155929259,-0.2266809618624559,0.0925621683528206,66
1764364771.576446,327,1.5966796875,36.72902428082214,-0.8332056976566051,-0.03737511011762962,67
1764364771.6775403,330,1.611328125,36.80120265703478,0.0765814060346187,0.034803266095011054,67
1764364771.7791169,333,1.6259765625,36.704183866265964,0.9863685097258426,-0.0622155246738032,67
1764364771.8803837,330,1.611328125,36.56296586420414,0.0765814060346187,-0.20343352673562975,68
1764364771.9816875,332,1.62109375,36.62483334046189,0.6831061418287679,-0.14156605047787707,68
1764364772.0827785,321,1.5673828125,36.95995357391716,-2.652779905039053,0.1935541829773939,68
1764364772.1842105,327,1.5966796875,36.94434708515874,-0.8332056976566051,0.17794769421897172,68
1764364772.285679,333,1.6259765625,36.85114871955683,0.9863685097258426,0.08474932861706463,68
1764364772.3871388,338,1.650390625,36.7688863149843,2.5026803492112157,0.002486924044532657,68
1764364772.4880195,336,1.640625,36.694774653766,1.896155613417066,-0.07162473717377082,68
1764364772.5888107,326,1.591796875,36.586557289273664,-1.1364680655536796,-0.17984210166610382,68
1764364772.6899178,328,1.6015625,36.657563955489245,-0.5299433297595305,-0.10883543545052277,69
1764364772.79129,329,1.6064453125,36.64235088455636,-0.2266809618624559,-0.12404850638341003,69
1764364772.89278,337,1.6455078125,36.59717472652854,2.1994179813141406,-0.16922466441122452,70
1764364772.9939945,324,1.58203125,36.958731866811576,-1.7429928013478289,0.19233247587180813,71
1764364773.0952413,333,1.6259765625,36.65292052318213,0.9863685097258426,-0.11347886775763527,72
1764364773.1963174,336,1.640625,36.94339182474742,1.896155613417066,0.17699243380765495,73
1764364773.2976372,334,1.630859375,36.6934931817985,1.289630877622917,-0.07290620914126578,74
1764364773.399569,338,1.650390625,36.617656474458215,2.5026803492112157,-0.14874291648155236,74
1764364773.5015557,335,1.6357421875,36.77182233135216,1.5928932455199916,0.005422940412394439,73
1764364773.6038907,324,1.58203125,36.748483532563775,-1.7429928013478289,-0.017915858375992855,73
1764364773.7054403,328,1.6015625,36.87622133871123,-0.5299433297595305,0.10982194777146503,73
1764364773.806474,322,1.572265625,36.6444006556341,-2.349517537141978,-0.12199873530566663,72
1764364773.9076173,329,1.6064453125,36.75368997124523,-0.2266809618624559,-0.012709419694537871,72
1764364774.008936,337,1.6455078125,36.62091630497835,2.1994179813141406,-0.14548308596141624,72
1764364774.1104743,321,1.5673828125,36.92718617223222,-2.652779905039053,0.16078678129245105,72
1764364774.211665,321,1.5673828125,36.86940769539812,-2.652779905039053,0.10300830445834919,72
1764364774.3130822,333,1.6259765625,36.60676428219486,0.9863685097258426,-0.15963510874490794,72
1764364774.4144526,330,1.611328125,36.567970901751345,0.0765814060346187,-0.19842848918842293,71
1764364774.5170324,326,1.591796875,36.879624313388845,-1.1364680655536796,0.11322492244907778,71
1764364774.6178427,326,1.591796875,36.946226584197056,-1.1364680655536796,0.1798271932572888,71
1764364774.7190485,326,1.591796875,36.85873241088712,-1.1364680655536796,0.09233301994735399,71
1764364774.8201425,327,1.5966796875,36.87541495417315,-0.8332056976566051,0.10901556323338468,72
1764364774.921166,337,1.6455078125,36.84693723491679,2.1994179813141406,0.08053784397701946,72
1764364775.0232773,334,1.630859375,36.71387643558296,1.289630877622917,-0.05252295535680673,73
1764364775.1244566,322,1.572265625,36.73739522088326,-2.349517537141978,-0.029004170056509793,72
1764364775.2257137,323,1.5771484375,36.629074751465005,-2.0462551692449034,-0.13732463947476248,72
1764364775.3265111,330,1.611328125,36.74399678150253,0.0765814060346187,-0.022402609437236265,72
1764364775.427757,327,1.5966796875,36.76398444264651,-0.8332056976566051,-0.0024149482932571686,72
1764364775.5289507,337,1.6455078125,36.9371119142064,2.1994179813141406,0.17071252326663,72
1764364775.629897,327,1.5966796875,36.60458077589922,-0.8332056976566051,-0.16181861504054496,72
1764364775.7316835,323,1.5771484375,36.704766272770875,-2.0462551692449034,-0.061633118168892054,72
1764364775.8337255,323,1.5771484375,36.90884040142407,-2.0462551692449034,0.1424410104843048,72
1764364775.9347713,338,1.650390625,36.79236653448563,2.5026803492112157,0.025967143545862825,72
1764364776.036098,326,1.591796875,36.7260994137017,-1.1364680655536796,-0.040299977238070994,72
1764364776.137364,331,1.6162109375,36.63068414401848,0.37984377393169333,-0.13571524692128634,71
1764364776.2386537,338,1.650390625,36.87169566476567,2.5026803492112157,0.10529627382589979,70
1764364776.339846,335,1.6357421875,36.571878017528746,1.5928932455199916,-0.19452137341102116,70
1764364776.4412944,324,1.58203125,36.919594412235334,-1.7429928013478289,0.1531950212955664,70
1764364776.5426455,322,1.572265625,36.88428423013595,-2.349517537141978,0.11788483919617931,71
1764364776.643782,338,1.650390625,36.6551217015165,2.5026803492112157,-0.1112776894232681,72
1764364776.7446358,335,1.6357421875,36.95146135720497,1.5928932455199916,0.18506196626520222,74
1764364776.8460147,332,1.62109375,36.697475725078704,0.6831061418287679,-0.06892366586106391,75
1764364776.947187,339,1.6552734375,36.93098674579347,2.8059427171082905,0.16458735485370113,76
1764364777.0491443,331,1.6162109375,36.719953624618114,0.37984377393169333,-0.04644576632165354,75
1764364777.150342,335,1.6357421875,36.66580738860379,1.5928932455199916,-0.1005920023359792,74
1764364777.2517354,337,1.6455078125,36.949036277466035,2.1994179813141406,0.18263688652626797,74
1764364777.3529468,328,1.6015625,36.729388010071965,-0.5299433297595305,-0.03701138086780276,75
1764364777.453996,331,1.6162109375,36.694417990272996,0.37984377393169333,-0.07198140066677183,74
1764364777.555202,321,1.5673828125,36.68142383558078,-2.652779905039053,-0.08497555535898726,74
1764364777.6567347,323,1.5771484375,36.83429881790098,-2.0462551692449034,0.06789942696121187,74
1764364777.7579668,336,1.640625,36.632019782722125,1.896155613417066,-0.1343796082176425,74
1764364777.8588574,320,1.5625,36.731210745263,-2.956042272936127,-0.035188645676768715,73
1764364777.9599867,322,1.572265625,36.766006959839636,-2.349517537141978,-0.00039243110013131854,73
1764364778.0612664,321,1.5673828125,36.82793197537543,-2.652779905039053,0.06153258443566045,73
1764364778.1625383,326,1.591796875,36.76504473916368,-1.1364680655536796,-0.0013546517760900656,73
1764364778.2641816,338,1.650390625,36.733235785755284,2.5026803492112157,-0.03316360518448391,73
1764364778.3653424,326,1.591796875,36.80373861558684,-1.1364680655536796,0.03733922464707007,73
1764364778.466625,325,1.5869140625,36.85464550327024,-1.4397304334507544,0.08824611233047364,74
1764364778.568415,325,1.5869140625,36.92656863397579,-1.4397304334507544,0.1601692430360231,74
1764364778.669478,326,1.591796875,36.65729900980466,-1.1364680655536796,-0.10910038113510723,74
1764364778.770914,336,1.640625,36.89681181384583,1.896155613417066,0.13041242290606192,74
1764364778.8720016,336,1.640625,36.78459086547785,1.896155613417066,0.018191474538085117,73
1764364778.97283,325,1.5869140625,36.75580768491439,-1.4397304334507544,-0.010591706025380176,73
1764364779.0738602,326,1.591796875,36.80227474586669,-1.1364680655536796,0.0358753549269224,71
1764364779.1755233,338,1.650390625,36.873551646390844,2.5026803492112157,0.10715225545107643,70
1764364779.2764146,334,1.630859375,36.788895711212895,1.289630877622917,0.022496320273127424,69
1764364779.3779836,327,1.5966796875,36.943871827727754,-0.8332056976566051,0.17747243678798696,68
1764364779.480452,335,1.6357421875,36.73513054928741,1.5928932455199916,-0.03126884165235566,67
1764364779.58165,328,1.6015625,36.63624685919656,-0.5299433297595305,-0.13015253174320662,67
1764364779.6825619,326,1.591796875,36.851432389808075,-1.1364680655536796,0.08503299886830717,66
1764364779.7835863,325,1.5869140625,36.86334620884815,-1.4397304334507544,0.09694681790838189,66
1764364779.8847692,338,1.650390625,36.74002168467745,2.5026803492112157,-0.02637770626231628,66
1764364779.9862497,330,1.611328125,36.65158268634693,0.0765814060346187,-0.11481670459284032,66
1764364780.088142,333,1.6259765625,36.71260330094624,0.9863685097258426,-0.0537960899935257,68
1764364780.1891854,340,1.66015625,36.837872189688376,3.1092050850053647,0.07147279874860857,69
1764364780.2901933,322,1.572265625,36.87623187490002,-2.349517537141978,0.10983248396025402,69
1764364780.3915796,322,1.572265625,36.76365349313985,-2.349517537141978,-0.0027458977999188505,70
1764364780.492901,334,1.630859375,36.875987586106184,1.289630877622917,0.10958819516641682,71
1764364780.5944984,327,1.5966796875,36.735924269382636,-0.8332056976566051,-0.0304751215571315,69
1764364780.6957085,338,1.650390625,36.95561296465441,2.5026803492112157,0.18921357371463898,67
1764364780.7976933,326,1.591796875,36.83592591178212,-1.1364680655536796,0.06952652084235211,65
1764364780.8987,338,1.650390625,36.69536591342315,2.5026803492112157,-0.0710334775166146,64
1764364781.0002315,323,1.5771484375,36.78466819285369,-2.0462551692449034,0.01826880191391922,62
1764364781.101096,322,1.572265625,36.56352155607572,-2.349517537141978,-0.2028778348640472,62
1764364781.2024598,327,1.5966796875,36.67829101911232,-0.8332056976566051,-0.08810837182744535,63
1764364781.3037133,321,1.5673828125,36.75104013921607,-2.652779905039053,-0.015359251723694456,63
1764364781.4046295,337,1.6455078125,36.9224903914986,2.1994179813141406,0.15609100055883118,65
1764364781.5058088,323,1.5771484375,36.608988996080484,-2.0462551692449034,-0.15741039485928354,67
1764364781.6066158,329,1.6064453125,36.822596440392,-0.2266809618624559,0.05619704945222992,69
1764364781.707832,334,1.630859375,36.73002914422272,1.289630877622917,-0.03637024671704836,71
1764364781.8091962,330,1.611328125,36.60695051169374,0.0765814060346187,-0.15944887924602824,73
1764364781.9109936,324,1.58203125,36.89183720405559,-1.7429928013478289,0.12543781311582336,72
1764364782.0127995,332,1.62109375,36.74001587032495,0.6831061418287679,-0.026383520614814415,72
1764364782.1144397,332,1.62109375,36.74357540431279,0.6831061418287679,-0.0228239866269746,72
1764364782.2156248,339,1.6552734375,36.82095640182395,2.8059427171082905,0.05455701088418152,71
1764364782.3173795,326,1.591796875,36.81784610824257,-1.1364680655536796,0.05144671730280237,70
1764364782.4183636,327,1.5966796875,36.833527098322556,-0.8332056976566051,0.06712770738278806,70
1764364782.5192993,329,1.6064453125,36.95426952399059,-0.2266809618624559,0.18787013305082212,69
1764364782.6208215,335,1.6357421875,36.873643370231555,1.5928932455199916,0.10724397929178764,69
1764364782.722446,337,1.6455078125,36.95223379252352,2.1994179813141406,0.18583440158375453,68
1764364782.8238456,333,1.6259765625,36.72459589766693,0.9863685097258426,-0.0418034932728375,68
1764364782.925108,333,1.6259765625,36.69241481377266,0.9863685097258426,-0.07398457716710993,67
1764364783.0263896,325,1.5869140625,36.611120763990165,-1.4397304334507544,-0.15527862694960248,66
1764364783.1282911,328,1.6015625,36.83213623538758,-0.5299433297595305,0.06573684444781236,64
1764364783.2295644,332,1.62109375,36.666291481344444,0.6831061418287679,-0.10010790959532301,63
1764364783.330363,339,1.6552734375,36.82291556049407,2.8059427171082905,0.05651616955429972,62
1764364783.431517,324,1.58203125,36.838790597727126,-1.7429928013478289,0.07239120678735844,61
1764364783.5325298,325,1.5869140625,36.8754328371864,-1.4397304334507544,0.10903344624663447,60
1764364783.6335907,332,1.62109375,36.71927513523506,0.6831061418287679,-0.04712425570470913,60
1764364783.7345498,333,1.6259765625,36.8349467896555,0.9863685097258426,0.06854739871572946,59
1764364783.8355896,338,1.650390625,36.82037989684034,2.5026803492112157,0.05398050590057579,58
1764364783.9368243,330,1.611328125,36.74941462101961,0.0765814060346187,-0.01698476992015685,58
1764364784.0378578,325,1.5869140625,36.81865613938269,-1.4397304334507544,0.05225674844292172,59
1764364784.1391551,337,1.6455078125,36.946887963713664,2.1994179813141406,0.1804885727738963,59
1764364784.2402844,337,1.6455078125,36.706648240143736,2.1994179813141406,-0.05975115079603199,59
1764364784.341401,328,1.6015625,36.77021248870843,-0.5299433297595305,0.0038130977686634537,61
1764364784.443402,339,1.6552734375,36.60531373168733,2.8059427171082905,-0.16108565925243568,62
1764364784.5445516,328,1.6015625,36.762396801805515,-0.5299433297595305,-0.004002589134252332,63
1764364784.6461804,340,1.66015625,36.65720981056874,3.1092050850053647,-0.1091895803710301,64
1764364784.7473626,334,1.630859375,36.82147861928739,1.289630877622917,0.05507922834762269,64
1764364784.8487,333,1.6259765625,36.86089156019166,0.9863685097258426,0.09449216925189319,63
1764364784.9499848,322,1.572265625,36.62522183773852,-2.349517537141978,-0.1411775532012456,61
1764364785.0511732,323,1.5771484375,36.642751033148336,-2.0462551692449034,-0.12364835779143135,60
1764364785.15263,321,1.5673828125,36.84062021154253,-2.652779905039053,0.07422082060276125,58
1764364785.2536454,339,1.6552734375,36.71699578773403,2.8059427171082905,-0.049403603205739444,57
1764364785.3550336,338,1.650390625,36.92185349068536,2.5026803492112157,0.1554540997455902,55
1764364785.4560008,329,1.6064453125,36.61158231973713,-0.2266809618624559,-0.15481707120263621,56
1764364785.5572171,331,1.6162109375,36.67305524054283,0.37984377393169333,-0.09334415039693766,56
1764364785.6584313,341,1.6650390625,36.59982730316473,3.4124674529024395,-0.1665720877750374,57
1764364785.7596955,338,1.650390625,36.64488835430508,2.5026803492112157,-0.12151103663468632,57
1764364785.8612282,332,1.62109375,36.57588155371982,0.6831061418287679,-0.19051783721995008,57
1764364785.9623747,327,1.5966796875,36.598087169508375,-0.8332056976566051,-0.16831222143139257,57
1764364786.0633347,336,1.640625,36.707242525949745,1.896155613417066,-0.059156864990022484,57
1764364786.1641304,322,1.572265625,36.87960256862451,-2.349517537141978,0.11320317768474553,57
1764364786.265217,322,1.572265625,36.74756836876704,-2.349517537141978,-0.018831022172726364,57
1764364786.3664238,327,1.5966796875,36.68759749398073,-0.8332056976566051,-0.07880189695903539,57
1764364786.4673705,331,1.6162109375,36.56174178393838,0.37984377393169333,-0.20465760700138702,56
1764364786.5683787,339,1.6552734375,36.772141365109434,2.8059427171082905,0.005741974169666264,56
1764364786.6694243,321,1.5673828125,36.75804367255826,-2.652779905039053,-0.008355718381508837,56
1764364786.7704473,323,1.5771484375,36.83525647788858,-2.0462551692449034,0.06885708694881032,56
1764364786.871468,323,1.5771484375,36.784193735336174,-2.0462551692449034,0.017794344396406814,56
1764364786.9726484,336,1.640625,36.682617753221656,1.896155613417066,-0.08378163771811131,57
1764364787.0739906,338,1.650390625,36.910703610075664,2.5026803492112157,0.14430421913589697,57
1764364787.1751308,330,1.611328125,36.56558837272967,0.0765814060346187,-0.2008110182100964,57
1764364787.2785318,334,1.630859375,36.65645455521119,1.289630877622917,-0.1099448357285766,58
1764364787.379753,335,1.6357421875,36.82433679969491,1.5928932455199916,0.057937408755144304,58
1764364787.4809241,336,1.640625,36.62452265750129,1.896155613417066,-0.14187673343847962,58
1764364787.582071,334,1.630859375,36.87305851865651,1.289630877622917,0.10665912771673902,58
1764364787.6830952,340,1.66015625,36.692837851077684,3.1092050850053647,-0.07356153986208369,58
1764364787.7841635,335,1.6357421875,36.913600024789346,1.5928932455199916,0.14720063384957882,58
1764364787.8855112,324,1.58203125,36.65156796538714,-1.7429928013478289,-0.11483142555263015,58
1764364787.98712,328,1.6015625,36.58217065254634,-0.5299433297595305,-0.18422873839342913,58
1764364788.088193,321,1.5673828125,36.6078108593885,-2.652779905039053,-0.15858853155126695,58
1764364788.189336,327,1.5966796875,36.707966033873085,-0.8332056976566051,-0.058433357066682845,58
1764364788.2910385,332,1.62109375,36.72044678505645,0.6831061418287679,-0.045952605883314845,57
1764364788.3952138,333,1.6259765625,36.93526711967189,0.9863685097258426,0.16886772873212408,57
1764364788.4964142,325,1.5869140625,36.93817530155745,-1.4397304334507544,0.17177591061768283,57
1764364788.5973234,326,1.591796875,36.8587856472135,-1.1364680655536796,0.09238625627373409,57
1764364788.6980426,328,1.6015625,36.64476334888941,-0.5299433297595305,-0.12163604205035483,57
1764364788.7990217,332,1.62109375,36.87772717168873,0.6831061418287679,0.11132778074896521,57
1764364788.900324,320,1.5625,36.693543262430154,-2.956042272936127,-0.07285612850961343,57
1764364789.0015059,322,1.572265625,36.64653502981987,-2.349517537141978,-0.11986436111989462,57
1764364789.1025946,324,1.58203125,36.68789507292724,-1.7429928013478289,-0.07850431801252711,57
1764364789.2036154,332,1.62109375,36.57468288403695,0.6831061418287679,-0.1917165069028144,57
1764364789.3044474,341,1.6650390625,36.80197896141573,3.4124674529024395,0.035579570475960054,57
1764364789.4054399,339,1.6552734375,36.75123666627663,2.8059427171082905,-0.015162724663134952,57
1764364789.5066605,340,1.66015625,36.87154975532743,3.1092050850053647,0.10515036438766145,56
1764364789.6077552,336,1.640625,36.68956145786882,1.896155613417066,-0.07683793307094788,56
1764364789.7093768,331,1.6162109375,36.75106167738219,0.37984377393169333,-0.01533771355757807,54
1764364789.8104258,324,1.58203125,36.92482336011658,-1.7429928013478289,0.158423969176809,53
1764364789.911271,339,1.6552734375,36.925452158104555,2.8059427171082905,0.15905276716478767,53
1764364790.0125055,340,1.66015625,36.84544932776801,3.1092050850053647,0.07904993682824113,53
1764364790.1141589,321,1.5673828125,36.76236550975706,-2.652779905039053,-0.004033881182706978,53
1764364790.2157464,327,1.5966796875,36.871072760721916,-0.8332056976566051,0.10467336978214803,54
1764364790.3167655,340,1.66015625,36.73996016149423,3.1092050850053647,-0.026439229445536228,55
1764364790.4179387,332,1.62109375,36.781052938626296,0.6831061418287679,0.014653547686528157,57
1764364790.519238,334,1.630859375,36.92442167979259,1.289630877622917,0.15802228885281977,57
1764364790.6201594,325,1.5869140625,36.63045088110713,-1.4397304334507544,-0.1359485098326374,57
1764364790.72122,341,1.6650390625,36.903023699209825,3.4124674529024395,0.13662430827005778,56
1764364790.823089,324,1.58203125,36.740082329740666,-1.7429928013478289,-0.026317061199101488,55
1764364790.9244688,333,1.6259765625,36.821635223967796,0.9863685097258426,0.05523583302802848,55
1764364791.0256414,321,1.5673828125,36.8057000597764,-2.652779905039053,0.0393006688366313,57
1764364791.1268487,336,1.640625,36.95791706824399,1.896155613417066,0.1915176773042191,57
1764364791.2280786,324,1.58203125,36.670995234691,-1.7429928013478289,-0.09540415624876886,58
1764364791.3291047,323,1.5771484375,36.59946688363268,-2.0462551692449034,-0.16693250730708797,58
1764364791.4303868,328,1.6015625,36.597300345733885,-0.5299433297595305,-0.1690990452058827,58
1764364791.5314097,333,1.6259765625,36.66242085436974,0.9863685097258426,-0.10397853657002543,58
1764364791.6326964,328,1.6015625,36.76878230184441,-0.5299433297595305,0.002382910904643154,57
1764364791.7337627,336,1.640625,36.58171486222177,1.896155613417066,-0.18468452871799457,57
1764364791.8348875,335,1.6357421875,36.8399047365224,1.5928932455199916,0.07350534558263178,57
1764364791.9359777,338,1.650390625,36.80065004008155,2.5026803492112157,0.03425064914178222,57
1764364792.0369751,329,1.6064453125,36.80327206909312,-0.2266809618624559,0.036872678153351046,56
1764364792.138186,329,1.6064453125,36.72652576889892,-0.2266809618624559,-0.039873622040850876,56
1764364792.239398,321,1.5673828125,36.63647617843888,-2.652779905039053,-0.12992321250088423,57
1764364792.3405967,327,1.5966796875,36.691890375114,-0.8332056976566051,-0.07450901582576819,57
1764364792.4417393,321,1.5673828125,36.63939537503119,-2.652779905039053,-0.12700401590857524,58
1764364792.5427814,333,1.6259765625,36.9252493102416,0.9863685097258426,0.15884991930182935,58
1764364792.643711,337,1.6455078125,36.69725775169099,2.1994179813141406,-0.0691416392487767,59
1764364792.7446454,329,1.6064453125,36.5601027375475,-0.2266809618624559,-0.20629665339226477,59
1764364792.8456352,326,1.591796875,36.88772960348472,-1.1364680655536796,0.12133021254495446,59
1764364792.9472387,321,1.5673828125,36.63509898635919,-2.652779905039053,-0.13130040458057834,58
1764364793.048136,331,1.6162109375,36.72619558885362,0.37984377393169333,-0.04020380208614682,58
1764364793.1493406,327,1.5966796875,36.67076854401263,-0.8332056976566051,-0.0956308469271363,58
1764364793.25056,334,1.630859375,36.778543980315256,1.289630877622917,0.012144589375488124,58
1764364793.3515623,325,1.5869140625,36.87080011735392,-1.4397304334507544,0.10440072641415554,59
1764364793.4526784,327,1.5966796875,36.8058346615486,-0.8332056976566051,0.039435270608834117,61
1764364793.5542805,332,1.62109375,36.944864589494195,0.6831061418287679,0.17846519855442722,62
1764364793.6555066,327,1.5966796875,36.78428556489235,-0.8332056976566051,0.01788617395258285,63
1764364793.7567127,331,1.6162109375,36.642177808159744,0.37984377393169333,-0.12422158278002371,64
1764364793.857813,327,1.5966796875,36.71346624642628,-0.8332056976566051,-0.05293314451348863,64
1764364793.9592407,320,1.5625,36.632776128621856,-2.956042272936127,-0.13362326231791144,64
1764364794.060196,326,1.591796875,36.61439790054078,-1.1364680655536796,-0.15200149039898747,63
1764364794.1613898,338,1.650390625,36.88521617126177,2.5026803492112157,0.11881678032199972,63
1764364794.2623985,331,1.6162109375,36.71045489274315,0.37984377393169333,-0.05594449819661662,63
1764364794.3634715,335,1.6357421875,36.86232919236763,1.5928932455199916,0.09592980142786445,63
1764364794.464697,335,1.6357421875,36.700175912027646,1.5928932455199916,-0.06622347891212144,63
1764364794.5685031,322,1.572265625,36.949411700635565,-2.349517537141978,0.18301230969579763,63
1764364794.6697848,328,1.6015625,36.858093203353505,-0.5299433297595305,0.09169381241373742,63
1764364794.770851,324,1.58203125,36.72329455102861,-1.7429928013478289,-0.043104839911158876,64
1764364794.8727114,329,1.6064453125,36.79405117674599,-0.2266809618624559,0.02765178580622063,64
1764364794.9738252,339,1.6552734375,36.65529134156533,2.8059427171082905,-0.11110804937443675,64
1764364795.0749047,322,1.572265625,36.95439039952621,-2.349517537141978,0.1879910085864438,64
1764364795.1760252,325,1.5869140625,36.842779140371896,-1.4397304334507544,0.07637974943212811,64
1764364795.277036,323,1.5771484375,36.844688780997416,-2.0462551692449034,0.07828939005764823,64
1764364795.3784728,334,1.630859375,36.63725354906176,1.289630877622917,-0.1291458418780067,65
1764364795.4793913,324,1.58203125,36.56830365135594,-1.7429928013478289,-0.19809573958382742,66
1764364795.5805252,327,1.5966796875,36.943961973628056,-0.8332056976566051,0.17756258268828873,67
1764364795.6816423,340,1.66015625,36.69489205734285,3.1092050850053647,-0.07150733359691941,67
1764364795.7828717,339,1.6552734375,36.60066871176545,2.8059427171082905,-0.16573067917431672,67
1764364795.8839586,338,1.650390625,36.91474758781843,2.5026803492112157,0.14834819687866485,68
1764364795.985835,326,1.591796875,36.65743100789153,-1.1364680655536796,-0.10896838304823575,68
1764364796.0873477,339,1.6552734375,36.648877900332025,2.8059427171082905,-0.11752149060774286,67
1764364796.1887243,339,1.6552734375,36.947552182682394,2.8059427171082905,0.1811527917426261,67
1764364796.2898452,340,1.66015625,36.94200059462201,3.1092050850053647,0.1756012036822412,68
1764364796.3911057,327,1.5966796875,36.647562861386206,-0.8332056976566051,-0.11883652955356183,68
1764364796.492198,329,1.6064453125,36.828000990400895,-0.2266809618624559,0.06160159946112742,67
1764364796.5932178,336,1.640625,36.944302559430845,1.896155613417066,0.17790316849107768,68
1764364796.6943202,334,1.630859375,36.71084823442126,1.289630877622917,-0.055551156518504285,69
1764364796.7956672,323,1.5771484375,36.758883448936174,-2.0462551692449034,-0.007515942003593068,71
1764364796.897042,336,1.640625,36.8164136305876,1.896155613417066,0.050014239647829584,71
1764364796.9980774,337,1.6455078125,36.78428099699546,2.1994179813141406,0.017881606055695443,72
1764364797.099136,330,1.611328125,36.85117634778607,0.0765814060346187,0.08477695684630504,72
1764364797.200035,333,1.6259765625,36.57280603030204,0.9863685097258426,-0.19359336063772759,72
1764364797.3022592,332,1.62109375,36.87169105182173,0.6831061418287679,0.10529166088196007,72
1764364797.4039388,331,1.6162109375,36.93316239133462,0.37984377393169333,0.1667630003948517,71
1764364797.5050726,324,1.58203125,36.882362726296726,-1.7429928013478289,0.11596333535695891,71
1764364797.6065168,340,1.66015625,36.82871708063127,3.1092050850053647,0.062317689691504086,71
1764364797.7078784,338,1.650390625,36.91290243958921,2.5026803492112157,0.14650304864944275,73
1764364797.8090968,326,1.591796875,36.83945307668071,-1.1364680655536796,0.07305368574094473,75
1764364797.9101982,328,1.6015625,36.849943097484264,-0.5299433297595305,0.08354370654449639,76
1764364798.011115,326,1.591796875,36.70870545146943,-1.1364680655536796,-0.05769393947034018,78
1764364798.1125672,322,1.572265625,36.94270020546235,-2.349517537141978,0.17630081452258395,80
1764364798.2134852,338,1.650390625,36.87643976021367,2.5026803492112157,0.1100403692739036,80
1764364798.3147202,330,1.611328125,36.63411059670571,0.0765814060346187,-0.13228879423405715,80
1764364798.4161718,322,1.572265625,36.76535155867199,-2.349517537141978,-0.0010478322677798246,81
1764364798.5180259,327,1.5966796875,36.64760305131709,-0.8332056976566051,-0.11879633962267633,81
1764364798.620074,321,1.5673828125,36.792201898078766,-2.652779905039053,0.02580250713899801,81
1764364798.7220027,322,1.572265625,36.63139773655348,-2.349517537141978,-0.13500165438628642,81
1764364798.823036,332,1.62109375,36.70988930706291,0.6831061418287679,-0.05651008387685863,81
1764364798.9237564,324,1.58203125,36.89516695097183,-1.7429928013478289,0.1287675600320597,81
1764364799.0249372,334,1.630859375,36.57255144292913,1.289630877622917,-0.1938479480106352,81
1764364799.125907,339,1.6552734375,36.73985546377048,2.8059427171082905,-0.026543927169285553,81
1764364799.2268338,321,1.5673828125,36.580276098942605,-2.652779905039053,-0.1861232919971627,81
1764364799.3279755,325,1.5869140625,36.88577206775742,-1.4397304334507544,0.11937267681765462,81
1764364799.4288974,321,1.5673828125,36.734559566503606,-2.652779905039053,-0.031839824436161734,80
1764364799.53,338,1.650390625,36.86864226825079,2.5026803492112157,0.10224287731102066,80
1764364799.630977,321,1.5673828125,36.83532505765829,-2.652779905039053,0.06892566671852052,79
1764364799.7320905,336,1.640625,36.58134617200056,1.896155613417066,-0.18505321893920978,79
1764364799.8335223,326,1.591796875,36.72378706985354,-1.1364680655536796,-0.04261232108622437,80
1764364799.9350548,334,1.630859375,36.94964532066399,1.289630877622917,0.18324592972422238,80
1764364800.0361564,321,1.5673828125,36.91470772632213,-2.652779905039053,0.1483083353823602,80
1764364800.1380837,322,1.572265625,36.88495956210618,-2.349517537141978,0.11856017116641482,80
1764364800.2393298,337,1.6455078125,36.88956058622423,2.1994179813141406,0.12316119528446023,80
1764364800.340739,328,1.6015625,36.64116170928521,-0.5299433297595305,-0.12523768165456062,80
1764364800.4423501,324,1.58203125,36.756253540306275,-1.7429928013478289,-0.01014585063349216,79
1764364800.5435984,330,1.611328125,36.707660984219515,0.0765814060346187,-0.0587384067202521,78
1764364800.6448655,340,1.66015625,36.632933835784826,3.1092050850053647,-0.13346555515494174,77
1764364800.7463806,331,1.6162109375,36.92643348511568,0.37984377393169333,0.16003409417591286,77
1764364800.847183,333,1.6259765625,36.62608048706095,0.9863685097258426,-0.14031890387881418,79
1764364800.9492362,328,1.6015625,36.746930729122674,-0.5299433297595305,-0.01946866181709339,80
1764364801.0506232,333,1.6259765625,36.62035205962483,0.9863685097258426,-0.1460473313149393,81
1764364801.1526997,339,1.6552734375,36.84093971656391,2.8059427171082905,0.0745403256241417,83
1764364801.2535586,329,1.6064453125,36.89063201636612,-0.2266809618624559,0.12423262542635172,83
1764364801.354428,340,1.66015625,36.95830109322744,3.1092050850053647,0.191901702287673,83
1764364801.455839,321,1.5673828125,36.71400546173205,-2.652779905039053,-0.05239392920771735,83
1764364801.5573928,329,1.6064453125,36.70093299902016,-0.2266809618624559,-0.06546639191960679,83
1764364801.6585147,337,1.6455078125,36.757381278438814,2.1994179813141406,-0.009018112500953634,83
1764364801.7597673,339,1.6552734375,36.7799990259375,2.8059427171082905,0.013599634997731869,83
1764364801.8608992,338,1.650390625,36.78462702003172,2.5026803492112157,0.01822762909195319,83
1764364801.9621422,333,1.6259765625,36.65761033071578,0.9863685097258426,-0.10878906022399093,83
1764364802.063655,336,1.640625,36.888045550505694,1.896155613417066,0.12164615956592684,83
1764364802.164414,335,1.6357421875,36.69754963306733,1.5928932455199916,-0.06884975787243519,83
1764364802.2655625,321,1.5673828125,36.91333542994054,-2.652779905039053,0.1469360390007708,83
1764364802.3666873,330,1.611328125,36.832367903453815,0.0765814060346187,0.065968512514047,83
1764364802.4677877,333,1.6259765625,36.789539324964764,0.9863685097258426,0.023139934024996478,83
1764364802.5691135,321,1.5673828125,36.788702400348434,-2.652779905039053,0.022303009408666696,83
1764364802.670126,322,1.572265625,36.623481131366106,-2.349517537141978,-0.142918259573662,83
1764364802.7713792,333,1.6259765625,36.636263848889946,0.9863685097258426,-0.13013554204982114,83
1764364802.8730495,329,1.6064453125,36.803529612092355,-0.2266809618624559,0.03713022115258724,83
1764364802.9744978,332,1.62109375,36.774455852099344,0.6831061418287679,0.008056461159576145,82
1764364803.0758576,323,1.5771484375,36.56470044367903,-2.0462551692449034,-0.20169894726073778,82
1764364803.177117,330,1.611328125,36.5989280205113,0.0765814060346187,-0.1674713704284656,82
1764364803.2784636,327,1.5966796875,36.759039591802456,-0.8332056976566051,-0.007359799137311995,83
1764364803.3796463,333,1.6259765625,36.63433226860959,0.9863685097258426,-0.13206712233017726,83
1764364803.4804847,330,1.611328125,36.65507608355027,0.0765814060346187,-0.11132330738949747,83
1764364803.5818534,340,1.66015625,36.83895728831943,3.1092050850053647,0.07255789737966012,84
1764364803.6834316,322,1.572265625,36.84216189458057,-2.349517537141978,0.07576250364080295,83
1764364803.784371,329,1.6064453125,36.862069914013674,-0.2266809618624559,0.09567052307390611,81
1764364803.8856108,335,1.6357421875,36.90076398905441,1.5928932455199916,0.13436459811464374,80
1764364803.98662,327,1.5966796875,36.94758327407234,-0.8332056976566051,0.18118388313257583,78
1764364804.0878577,320,1.5625,36.75954842922875,-2.956042272936127,-0.006850961711016623,77
1764364804.1890132,340,1.66015625,36.594761431309045,3.1092050850053647,-0.17163795963072204,77
1764364804.2900298,325,1.5869140625,36.720227402016434,-1.4397304334507544,-0.04617198892333363,78
1764364804.3910637,340,1.66015625,36.937731153200666,3.1092050850053647,0.1713317622608983,78
1764364804.492185,327,1.5966796875,36.899218447356795,-0.8332056976566051,0.13281905641702707,78
1764364804.593561,328,1.6015625,36.643375879248765,-0.5299433297595305,-0.12302351169100234,78
1764364804.6946428,326,1.591796875,36.94507076361302,-1.1364680655536796,0.17867137267325006,78
1764364804.7957802,340,1.66015625,36.658873587413346,3.1092050850053647,-0.10752580352642127,77
1764364804.8971417,339,1.6552734375,36.727541060143906,2.8059427171082905,-0.03885833079586121,77
1764364804.9989934,323,1.5771484375,36.70860831728603,-2.0462551692449034,-0.057791073653739033,78
1764364805.1003044,330,1.611328125,36.731937682022654,0.0765814060346187,-0.034461708917113754,78
1764364805.2015722,338,1.650390625,36.87637490904014,2.5026803492112157,0.1099755181003701,79
1764364805.30305,321,1.5673828125,36.94896114699914,-2.652779905039053,0.1825617560593713,79
1764364805.403962,325,1.5869140625,36.73049609297954,-1.4397304334507544,-0.035903297960224734,80
1764364805.504703,331,1.6162109375,36.63077324349872,0.37984377393169333,-0.1356261474410445,80
1764364805.6054142,339,1.6552734375,36.885948711008645,2.8059427171082905,0.11954932006887731,80
1764364805.7065942,327,1.5966796875,36.90058292263026,-0.8332056976566051,0.13418353169048913,78
1764364805.8076208,338,1.650390625,36.65939822102943,2.5026803492112157,-0.10700116991034037,76
1764364805.9091969,338,1.650390625,36.92190130519915,2.5026803492112157,0.1555019142593821,75
1764364806.0101972,328,1.6015625,36.743734978771414,-0.5299433297595305,-0.022664412168353465,74
1764364806.1109898,338,1.650390625,36.70115685354474,2.5026803492112157,-0.06524253739502939,74
1764364806.2134156,339,1.6552734375,36.89335344934256,2.8059427171082905,0.12695405840279506,75
1764364806.3150356,337,1.6455078125,36.8643178986913,2.1994179813141406,0.09791850775152966,76
1764364806.4166267,329,1.6064453125,36.59164140056725,-0.2266809618624559,-0.1747579903725196,78
1764364806.5181344,337,1.6455078125,36.92541680458567,2.1994179813141406,0.1590174136459055,78
1764364806.6201236,325,1.5869140625,36.905241257780546,-1.4397304334507544,0.13884186684077804,77
1764364806.7215028,337,1.6455078125,36.91578995874204,2.1994179813141406,0.14939056780227133,76
1764364806.822631,340,1.66015625,36.79733779348138,3.1092050850053647,0.030938402541615062,75
1764364806.9237478,326,1.591796875,36.646978145877384,-1.1364680655536796,-0.11942124506238372,73
1764364807.0256383,324,1.58203125,36.60299186387069,-1.7429928013478289,-0.1634075270690758,73
1764364807.126693,325,1.5869140625,36.91812275903508,-1.4397304334507544,0.15172336809531117,75
1764364807.2282438,328,1.6015625,36.892790837003474,-0.5299433297595305,0.12639144606370678,76
1764364807.3294759,325,1.5869140625,36.695371652904434,-1.4397304334507544,-0.07102773803533324,77
1764364807.4304535,331,1.6162109375,36.77162012090929,0.37984377393169333,0.005220729969522608,79
1764364807.5315776,320,1.5625,36.773470184167856,-2.956042272936127,0.007070793228088235,79
1764364807.6330538,327,1.5966796875,36.95346827853976,-0.8332056976566051,0.18706888759999174,78
1764364807.7342653,334,1.630859375,36.95150435398879,1.289630877622917,0.1851049630490209,78
1764364807.8354795,321,1.5673828125,36.733560932057195,-2.652779905039053,-0.03283845888257275,78
1764364807.9369977,339,1.6552734375,36.60001970122157,2.8059427171082905,-0.16637968971819816,77
1764364808.0380805,332,1.62109375,36.87890889016097,0.6831061418287679,0.11250949922120412,76
1764364808.1389189,338,1.650390625,36.894444299168136,2.5026803492112157,0.12804490822836812,76
1764364808.239734,338,1.650390625,36.61647699818541,2.5026803492112157,-0.14992239275435537,75
1764364808.3408735,339,1.6552734375,36.84222474027968,2.8059427171082905,0.07582534933991525,75
1764364808.4418395,321,1.5673828125,36.9342381158616,-2.652779905039053,0.16783872492183605,76
1764364808.5433538,335,1.6357421875,36.72017122963557,1.5928932455199916,-0.04622816130419949,76
1764364808.6450238,337,1.6455078125,36.69564166243561,2.1994179813141406,-0.07075772850415518,77
1764364808.7463489,338,1.650390625,36.80003372167471,2.5026803492112157,0.03363433073494093,78
1764364808.8481872,326,1.591796875,36.913303195169014,-1.1364680655536796,0.14690380422924676,77
1764364808.9493992,331,1.6162109375,36.59772683182255,0.37984377393169333,-0.16867255911721912,77
1764364809.05045,321,1.5673828125,36.57796591978625,-2.652779905039053,-0.18843347115351605,77
1764364809.1518786,326,1.591796875,36.86153023731471,-1.1364680655536796,0.09513084637494273,77
1764364809.25306,327,1.5966796875,36.64607234560426,-0.8332056976566051,-0.12032704533550742,76
1764364809.3540695,325,1.5869140625,36.78196526034518,-1.4397304334507544,0.015565869405413935,77
1764364809.4550176,326,1.591796875,36.6376383350682,-1.1364680655536796,-0.12876105587156417,76
1764364809.5565634,339,1.6552734375,36.61235300098586,2.8059427171082905,-0.15404638995390485,74
1764364809.6578617,340,1.66015625,36.78708660384776,3.1092050850053647,0.020687212907994024,72
1764364809.7587655,326,1.591796875,36.869047641350235,-1.1364680655536796,0.10264825041046777,70
1764364809.8603978,337,1.6455078125,36.56022882883848,2.1994179813141406,-0.20617056210128482,69
1764364809.961473,323,1.5771484375,36.794944670395694,-2.0462551692449034,0.02854527945592622,67
1764364810.063744,336,1.640625,36.806858664472294,1.896155613417066,0.04045927353252665,67
1764364810.1645808,335,1.6357421875,36.76871295546765,1.5928932455199916,0.00231356452788134,68
1764364810.2656686,334,1.630859375,36.73519784630177,1.289630877622917,-0.031201544637994516,70
1764364810.3669596,327,1.5966796875,36.66002272803797,-0.8332056976566051,-0.10637666290179482,71
1764364810.4683068,334,1.630859375,36.90024943966106,1.289630877622917,0.13385004872129258,72
1764364810.5696087,324,1.58203125,36.596019457877745,-1.7429928013478289,-0.17037993306202281,74
1764364810.671099,329,1.6064453125,36.83009939065461,-0.2266809618624559,0.06369999971484219,71
1764364810.7720432,325,1.5869140625,36.675811652780325,-1.4397304334507544,-0.09058773815944221,67
1764364810.873037,334,1.630859375,36.93137167736732,1.289630877622917,0.16497228642755601,64
1764364810.9739146,326,1.591796875,36.69677028783111,-1.1364680655536796,-0.06962910310866022,63
1764364811.0747414,321,1.5673828125,36.78283914367558,-2.652779905039053,0.01643975273581333,63
1764364811.1760125,337,1.6455078125,36.685588810762496,2.1994179813141406,-0.08081058017727116,64
1764364811.277319,330,1.611328125,36.95403400520092,0.0765814060346187,0.18763461426114958,66
1764364811.3786786,329,1.6064453125,36.94466774010469,-0.2266809618624559,0.17826834916492373,69
1764364811.4801393,327,1.5966796875,36.67469159090582,-0.8332056976566051,-0.09170780003394441,69
1764364811.5810797,325,1.5869140625,36.763296622929964,-1.4397304334507544,-0.0031027680098034693,69
1764364811.6819625,339,1.6552734375,36.86180722536991,2.8059427171082905,0.09540783443014078,70
1764364811.7831464,336,1.640625,36.609842046176816,1.896155613417066,-0.1565573447629518,70
1764364811.8840237,341,1.6650390625,36.87533148802618,3.4124674529024395,0.10893209708640939,70
1764364811.9851232,341,1.6650390625,36.75302621354929,3.4124674529024395,-0.013373177390477053,70
1764364812.0864487,330,1.611328125,36.619135797775186,0.0765814060346187,-0.14726359316458115,71
1764364812.1874876,335,1.6357421875,36.8138801341365,1.5928932455199916,0.047480743196729236,73
1764364812.288237,325,1.5869140625,36.725396480184244,-1.4397304334507544,-0.0410029107555232,76
1764364812.3892267,330,1.611328125,36.780142701380555,0.0765814060346187,0.013743310440787582,78
1764364812.4902098,337,1.6455078125,36.634689972081524,2.1994179813141406,-0.13170941885824305,80
1764364812.5914354,339,1.6552734375,36.752698878823296,2.8059427171082905,-0.013700512116471941,79
1764364812.692893,322,1.572265625,36.84979727885685,-2.349517537141978,0.08339788791708003,76
1764364812.7942781,331,1.6162109375,36.59203521011056,0.37984377393169333,-0.17436418082920824,73
1764364812.8957736,326,1.591796875,36.85323517276464,-1.1364680655536796,0.08683578182487395,71
1764364812.996808,327,1.5966796875,36.9323114796905,-0.8332056976566051,0.16591208875072994,68
1764364813.0977557,325,1.5869140625,36.67109485169091,-1.4397304334507544,-0.09530453924885762,70
1764364813.1987228,331,1.6162109375,36.85420212189258,0.37984377393169333,0.08780273095280933,70
1764364813.3001757,328,1.6015625,36.839532425960996,-0.5299433297595305,0.07313303502122892,72
1764364813.4015663,323,1.5771484375,36.707158085537614,-2.0462551692449034,-0.059241305402153444,75
1764364813.5028083,329,1.6064453125,36.85082445532661,-0.2266809618624559,0.08442506438684205,78
1764364813.6042652,333,1.6259765625,36.60637147950214,0.9863685097258426,-0.16002791143763062,77
1764364813.7053816,327,1.5966796875,36.6191857274304,-0.8332056976566051,-0.14721366350936904,80
1764364813.807027,328,1.6015625,36.80134792294098,-0.5299433297595305,0.03494853200120929,80
1764364813.9085965,335,1.6357421875,36.64763839204785,1.5928932455199916,-0.11876099889191494,79
1764364814.0102124,335,1.6357421875,36.77191161750522,1.5928932455199916,0.005512226565450362,79
1764364814.111198,327,1.5966796875,36.61071001859297,-0.8332056976566051,-0.15568937234679936,78
1764364814.2123153,332,1.62109375,36.729417243544596,0.6831061418287679,-0.036982147395171694,77
1764364814.313505,332,1.62109375,36.81235562253628,0.6831061418287679,0.045956231596512964,76
1764364814.4150581,331,1.6162109375,36.65663504861054,0.37984377393169333,-0.10976434232922827,74
1764364814.515893,329,1.6064453125,36.9587447202538,-0.2266809618624559,0.1923453293140298,73
1764364814.6172776,339,1.6552734375,36.712309790760074,2.8059427171082905,-0.054089600179693775,73
1764364814.7181752,332,1.62109375,36.90421739581101,0.6831061418287679,0.1378180048712423,73
1764364814.8191931,326,1.591796875,36.94945445110492,-1.1364680655536796,0.18305506016515238,73
1764364814.920171,321,1.5673828125,36.77366991638337,-2.652779905039053,0.0072705254436016276,73
1764364815.0213788,321,1.5673828125,36.6428940564505,-2.652779905039053,-0.12350533448926626,74
1764364815.122313,335,1.6357421875,36.56369755130369,1.5928932455199916,-0.20270183963607735,74
1764364815.224068,330,1.611328125,36.859472352085106,0.0765814060346187,0.0930729611453387,74
1764364815.325401,336,1.640625,36.77447543753776,1.896155613417066,0.008076046597992104,74
1764364815.426371,330,1.611328125,36.56469403533987,0.0765814060346187,-0.20170535559989844,74
1764364815.5274076,328,1.6015625,36.72136636107424,-0.5299433297595305,-0.04503302986552882,74
1764364815.6291108,338,1.650390625,36.949456303442375,2.5026803492112157,0.18305691250260736,74
1764364815.7298768,339,1.6552734375,36.67483478048583,2.8059427171082905,-0.09156461045393627,74
1764364815.830945,328,1.6015625,36.68610159292784,-0.5299433297595305,-0.0802977980119266,73
1764364815.932118,339,1.6552734375,36.93955674552487,2.8059427171082905,0.17315735458510062,72
1764364816.033763,324,1.58203125,36.76378624722718,-1.7429928013478289,-0.0026131437125869184,72
1764364816.1345358,333,1.6259765625,36.80666524837625,0.9863685097258426,0.0402658574364807,72
1764364816.235275,333,1.6259765625,36.870960287271174,0.9863685097258426,0.10456089633140664,72
1764364816.3365822,324,1.58203125,36.91029401855591,-1.7429928013478289,0.1438946276161417,73
1764364816.4378626,338,1.650390625,36.67591776200922,2.5026803492112157,-0.09048162893054723,73
1764364816.539392,337,1.6455078125,36.844019337498445,2.1994179813141406,0.0776199465586771,73
1764364816.640872,333,1.6259765625,36.677372119877354,0.9863685097258426,-0.08902727106241315,73
1764364816.74229,339,1.6552734375,36.738359811950644,2.8059427171082905,-0.028039578989123015,73
1764364816.8437648,324,1.58203125,36.83579967171903,-1.7429928013478289,0.06940028077926286,72
1764364816.9447393,324,1.58203125,36.61963131940373,-1.7429928013478289,-0.14676807153603733,70
1764364817.0481472,321,1.5673828125,36.894466541394536,-2.652779905039053,0.12806715045476835,69
1764364817.1495538,322,1.572265625,36.64049101738554,-2.349517537141978,-0.1259083735542248,68
1764364817.2505422,329,1.6064453125,36.93062251050876,-0.2266809618624559,0.1642231195689945,67
1764364817.3515415,322,1.572265625,36.8913519057722,-2.349517537141978,0.12495251483242953,67
1764364817.45231,326,1.591796875,36.94821342202101,-1.1364680655536796,0.18181403108124528,67
1764364817.553512,333,1.6259765625,36.828495548914574,0.9863685097258426,0.06209615797480694,67
1764364817.6555567,333,1.6259765625,36.720377853075064,0.9863685097258426,-0.04602153786470353,67
1764364817.757238,333,1.6259765625,36.67305346419014,0.9863685097258426,-0.0933459267496275,66
1764364817.8586118,325,1.5869140625,36.696534457360244,-1.4397304334507544,-0.06986493357952384,66
1764364817.959865,331,1.6162109375,36.67569679510601,0.37984377393169333,-0.09070259583375417,67
1764364818.0607276,322,1.572265625,36.72130754660324,-2.349517537141978,-0.045091844336525355,68
1764364818.1617174,325,1.5869140625,36.87114071825422,-1.4397304334507544,0.10474132731444996,70
1764364818.2633228,324,1.58203125,36.79155759630925,-1.7429928013478289,0.025158205369478992,72
1764364818.3644388,337,1.6455078125,36.852268018009475,2.1994179813141406,0.08586862706970777,74
1764364818.4653642,338,1.650390625,36.62314266005345,2.5026803492112157,-0.1432567308863142,75
1764364818.5669947,336,1.640625,36.76163372329951,1.896155613417066,-0.0047656676402567655,74
1764364818.6677878,322,1.572265625,36.715956976479944,-2.349517537141978,-0.050442414459823226,73
1764364818.7689545,339,1.6552734375,36.82620031865712,2.8059427171082905,0.05980092771735457,71
1764364818.8704865,332,1.62109375,36.728012099110096,0.6831061418287679,-0.03838729182967171,69
1764364818.9719336,321,1.5673828125,36.932397905002645,-2.652779905039053,0.1659985140628777,68
1764364819.073433,326,1.591796875,36.63707135366941,-1.1364680655536796,-0.1293280372703549,67
1764364819.1747549,324,1.58203125,36.945901547473966,-1.7429928013478289,0.17950215653419832,67
1764364819.2756512,329,1.6064453125,36.876760263009515,-0.2266809618624559,0.11036087206974798,66
1764364819.3766935,325,1.5869140625,36.8468051421821,-1.4397304334507544,0.08040575124233129,66
1764364819.47787,336,1.640625,36.86257995345455,1.896155613417066,0.0961805625147818,66
1764364819.5789084,327,1.5966796875,36.932128152294226,-0.8332056976566051,0.16572876135445824,66
1764364819.6799939,321,1.5673828125,36.812645873231624,-2.652779905039053,0.04624648229185624,67
1764364819.7810068,336,1.640625,36.74994227858375,1.896155613417066,-0.016457112356015102,67
1764364819.8819828,321,1.5673828125,36.567308242238916,-2.652779905039053,-0.19909114870085176,67
1764364819.983435,336,1.640625,36.60345295798996,1.896155613417066,-0.16294643294980915,67
1764364820.0844033,327,1.5966796875,36.76756730335778,-0.8332056976566051,0.0011679124180119516,67
1764364820.1857557,328,1.6015625,36.75680999969242,-0.5299433297595305,-0.009589391247345702,67
1764364820.2870085,340,1.66015625,36.870042593661715,3.1092050850053647,0.1036432027219476,67
1764364820.388978,328,1.6015625,36.798935055713265,-0.5299433297595305,0.032535664773497786,69
1764364820.4902132,328,1.6015625,36.769113445031024,-0.5299433297595305,0.002714054091256912,71
1764364820.5921001,328,1.6015625,36.63518384606157,-0.5299433297595305,-0.1312155448781951,72
1764364820.6932824,340,1.66015625,36.95099867102492,3.1092050850053647,0.18459928008515192,72
1764364820.7944667,328,1.6015625,36.6165930374788,-0.5299433297595305,-0.14980635346096705,72
1764364820.8952446,331,1.6162109375,36.77232016676874,0.37984377393169333,0.005920775828975877,69
1764364820.996447,323,1.5771484375,36.909731431683795,-2.0462551692449034,0.14333204074402772,69
1764364821.097656,323,1.5771484375,36.77961698087717,-2.0462551692449034,0.013217589937404739,69
1764364821.1993194,333,1.6259765625,36.851860619796255,0.9863685097258426,0.08546122885648799,67
1764364821.3002665,324,1.58203125,36.765377661741034,-1.7429928013478289,-0.0010217291987331123,67
1764364821.4010975,327,1.5966796875,36.65221875639338,-0.8332056976566051,-0.11418063454638627,70
1764364821.5022898,341,1.6650390625,36.7375929968112,3.4124674529024395,-0.02880639412856567,70
1764364821.6041548,324,1.58203125,36.747649803123096,-1.7429928013478289,-0.018749587816671465,69
1764364821.7060425,327,1.5966796875,36.791765296886794,-0.8332056976566051,0.02536590594702659,70
1764364821.8072765,336,1.640625,36.80874966013789,1.896155613417066,0.042350269198124124,70
1764364821.9085617,328,1.6015625,36.91415530064589,-0.5299433297595305,0.1477559097061203,68
1764364822.0097926,333,1.6259765625,36.74472160642837,0.9863685097258426,-0.02167778451139668,66
1764364822.1112351,334,1.630859375,36.94842088604043,1.289630877622917,0.18202149510066334,64
1764364822.212305,323,1.5771484375,36.63370065337955,-2.0462551692449034,-0.13269873756021866,64
1764364822.313408,322,1.572265625,36.56591587114011,-2.349517537141978,-0.20048351979965418,64
1764364822.414309,325,1.5869140625,36.56119301272781,-1.4397304334507544,-0.20520637821195464,66
1764364822.51523,330,1.611328125,36.88589010820061,0.0765814060346187,0.11949071726084526,68
1764364822.6164112,339,1.6552734375,36.72420697675479,2.8059427171082905,-0.042192414184974325,69
1764364822.7175972,340,1.66015625,36.88369143025352,3.1092050850053647,0.1172920393137531,68
1764364822.818746,321,1.5673828125,36.93209823658277,-2.652779905039053,0.16569884564299997,68
1764364822.9199166,331,1.6162109375,36.80951651968718,0.37984377393169333,0.04311712874741147,68
1764364823.0212843,332,1.62109375,36.80687940002909,0.6831061418287679,0.04048000908932181,68
1764364823.1225722,321,1.5673828125,36.84047506665761,-2.652779905039053,0.07407567571784313,68
1764364823.2238863,331,1.6162109375,36.78301257760907,0.37984377393169333,0.01661318666930356,68
1764364823.3251224,326,1.591796875,36.958160244245555,-1.1364680655536796,0.1917608533057873,68
1764364823.4264994,331,1.6162109375,36.82814934398929,0.37984377393169333,0.06174995304952091,68
1764364823.5276012,330,1.611328125,36.94228234903205,0.0765814060346187,0.17588295809228072,68
1764364823.6290162,329,1.6064453125,36.78450724764263,-0.2266809618624559,0.01810785670286208,70
1764364823.7302809,325,1.5869140625,36.757192693892485,-1.4397304334507544,-0.00920669704728283,71
1764364823.8312552,323,1.5771484375,36.88619396262162,-2.0462551692449034,0.11979457168185093,73
1764364823.9325256,325,1.5869140625,36.66178512733827,-1.4397304334507544,-0.10461426360149773,72
1764364824.034102,333,1.6259765625,36.60418113525254,0.9863685097258426,-0.16221825568722892,72
1764364824.1360865,333,1.6259765625,36.780041951593844,0.9863685097258426,0.013642560654076874,70
1764364824.237241,325,1.5869140625,36.604053866312356,-1.4397304334507544,-0.16234552462741192,68
1764364824.3381639,337,1.6455078125,36.846223908783976,2.1994179813141406,0.07982451784420874,66
1764364824.4392364,336,1.640625,36.81960631339807,1.896155613417066,0.053206922458301165,66
1764364824.540594,338,1.650390625,36.57154451784719,2.5026803492112157,-0.19485487309258076,66
1764364824.6418123,330,1.611328125,36.92532747262483,0.0765814060346187,0.15892808168506178,65
1764364824.7429779,328,1.6015625,36.81468255618107,-0.5299433297595305,0.04828316524130116,66
1764364824.844308,340,1.66015625,36.60148844990146,3.1092050850053647,-0.1649109410383076,66
1764364824.946248,337,1.6455078125,36.69499849981763,2.1994179813141406,-0.07140089112213843,67
1764364825.0475416,321,1.5673828125,36.89555428832201,-2.652779905039053,0.12915489738224295,67
1764364825.1485312,333,1.6259765625,36.76514197965342,0.9863685097258426,-0.001257411286346155,68
1764364825.249653,333,1.6259765625,36.73653516282776,0.9863685097258426,-0.02986422811201095,69
1764364825.3508532,330,1.611328125,36.918712807642315,0.0765814060346187,0.1523134167025475,69
1764364825.451989,339,1.6552734375,36.77571576817096,2.8059427171082905,0.00931637723119394,68
1764364825.5531461,321,1.5673828125,36.83852436483633,-2.652779905039053,0.07212497389656392,68
1764364825.6546187,336,1.640625,36.89158514897982,1.896155613417066,0.12518575804005394,68
1764364825.755819,322,1.572265625,36.58961634034859,-2.349517537141978,-0.17678305059117605,68
1764364825.8568769,321,1.5673828125,36.842877175448685,-2.652779905039053,0.07647778450891707,69
1764364825.9589546,333,1.6259765625,36.87360160885255,0.9863685097258426,0.10720221791278561,70
1764364826.0601346,339,1.6552734375,36.846294242895446,2.8059427171082905,0.0798948519556788,70
1764364826.1614635,327,1.5966796875,36.86129302505398,-0.8332056976566051,0.09489363411421436,71
1764364826.2624807,332,1.62109375,36.72464393106214,0.6831061418287679,-0.04175545987762774,71
1764364826.3636243,326,1.591796875,36.876930603747,-1.1364680655536796,0.11053121280723133,71
1764364826.4649377,322,1.572265625,36.82892428678537,-2.349517537141978,0.0625248958456055,71
1764364826.566237,332,1.62109375,36.577505959019575,0.6831061418287679,-0.18889343192019226,71
1764364826.6678243,330,1.611328125,36.60419235795204,0.0765814060346187,-0.16220703298773032,71
1764364826.7687924,338,1.650390625,36.896904985479665,2.5026803492112157,0.13050559453989763,71
1764364826.8703196,335,1.6357421875,36.87912654219415,1.5928932455199916,0.11272715125438282,72
1764364826.9721627,324,1.58203125,36.64202217121409,-1.7429928013478289,-0.12437721972568028,72
1764364827.074056,323,1.5771484375,36.92270942472947,-2.0462551692449034,0.1563100337897012,72
1764364827.1748312,323,1.5771484375,36.61463716568187,-2.0462551692449034,-0.1517622252578974,73
1764364827.2760155,332,1.62109375,36.79218210672477,0.6831061418287679,0.025782715785005905,73
1764364827.3775187,334,1.630859375,36.64248940106746,1.289630877622917,-0.12390998987230972,73
1764364827.4785247,324,1.58203125,36.841134181554175,-1.7429928013478289,0.07473479061440713,73
1764364827.5799105,324,1.58203125,36.56653999820575,-1.7429928013478289,-0.19985939273401954,74
1764364827.6811821,337,1.6455078125,36.81604359659676,2.1994179813141406,0.049644205656989016,75
1764364827.7824852,331,1.6162109375,36.63034695783472,0.37984377393169333,-0.13605243310504989,75
1764364827.8839154,337,1.6455078125,36.73899711391883,2.1994179813141406,-0.02740227702093989,76
1764364827.985055,340,1.66015625,36.83219266912565,3.1092050850053647,0.06579327818587899,76
1764364828.0869212,321,1.5673828125,36.76293917787506,-2.652779905039053,-0.003460213064705897,76
1764364828.1886382,336,1.640625,36.58045873820198,1.896155613417066,-0.18594065273778426,76
1764364828.2923496,337,1.6455078125,36.671711732137354,2.1994179813141406,-0.09468765880241392,77
1764364828.393358,331,1.6162109375,36.81416113151659,0.37984377393169333,0.04776174057682425,76
1764364828.4945102,327,1.5966796875,36.826915714677675,-0.8332056976566051,0.060516323737907385,77
1764364828.59557,324,1.58203125,36.882789453275564,-1.7429928013478289,0.11639006233579607,77
1764364828.6972117,340,1.66015625,36.806790040610785,3.1092050850053647,0.0403906496710178,77
1764364828.798315,322,1.572265625,36.78423135451678,-2.349517537141978,0.017831963577009446,78
1764364828.8992503,335,1.6357421875,36.57646814133932,1.5928932455199916,-0.18993124960044838,80
1764364829.0003743,331,1.6162109375,36.75607606520263,0.37984377393169333,-0.01032332573714001,80
1764364829.102031,322,1.572265625,36.87249027945324,-2.349517537141978,0.10609088851347082,81
1764364829.2033286,321,1.5673828125,36.676086219610596,-2.652779905039053,-0.09031317132917138,81
1764364829.3045247,329,1.6064453125,36.90982455780862,-0.2266809618624559,0.14342516686885176,81
1764364829.4056668,338,1.650390625,36.86639601912435,2.5026803492112157,0.09999662818458432,81
1764364829.5065954,331,1.6162109375,36.712427367548514,0.37984377393169333,-0.05397202339125329,82
1764364829.60764,324,1.58203125,36.83684414891227,-1.7429928013478289,0.07044475797250271,82
1764364829.7089334,340,1.66015625,36.796171683810876,3.1092050850053647,0.029772292871108164,83
1764364829.8101912,331,1.6162109375,36.838726032984106,0.37984377393169333,0.07232664204433803,80
1764364829.91141,338,1.650390625,36.76689730064649,2.5026803492112157,0.0004979097067234761,78
1764364830.012559,330,1.611328125,36.725133360919784,0.0765814060346187,-0.04126603001998319,76
1764364830.1139154,328,1.6015625,36.92279868693954,-0.5299433297595305,0.1563992959997691,73
1764364830.2156215,328,1.6015625,36.94353922769808,-0.5299433297595305,0.17713983675831457,70
1764364830.316735,335,1.6357421875,36.72682907782618,1.5928932455199916,-0.03957031311358605,71
1764364830.4179332,328,1.6015625,36.84782110335357,-0.5299433297595305,0.0814217124137997,73
1764364830.51936,337,1.6455078125,36.642267994834306,2.1994179813141406,-0.12413139610546153,74
1764364830.620127,334,1.630859375,36.71583342200728,1.289630877622917,-0.05056596893248866,75
1764364830.7210765,321,1.5673828125,36.620985275977404,-2.652779905039053,-0.14541411496236378,76
1764364830.8221292,340,1.66015625,36.904253721027914,3.1092050850053647,0.13785433008814607,76
1764364830.9233336,328,1.6015625,36.81052242913826,-0.5299433297595305,0.04412303819849228,74
1764364831.0241477,322,1.572265625,36.77369597165102,-2.349517537141978,0.007296580711255274,73
1764364831.1249256,338,1.650390625,36.823025272821475,2.5026803492112157,0.056625881881707585,72
1764364831.2263525,340,1.66015625,36.766169914526174,3.1092050850053647,-0.0002294764135939431,72
1764364831.327612,331,1.6162109375,36.9237703153947,0.37984377393169333,0.15737092445493062,72
1764364831.4288225,322,1.572265625,36.734646081793095,-2.349517537141978,-0.03175330914667285,73
1764364831.5299423,336,1.640625,36.717731293094644,1.896155613417066,-0.04866809784512327,72
1764364831.6314175,327,1.5966796875,36.80829016219586,-0.8332056976566051,0.04189077125609231,72
1764364831.7329073,332,1.62109375,36.93589342892925,0.6831061418287679,0.16949403798948026,72
1764364831.834875,334,1.630859375,36.92539386095694,1.289630877622917,0.15899447001716993,72
1764364831.9359448,338,1.650390625,36.90993539375325,2.5026803492112157,0.14353600281348378,71
1764364832.037153,330,1.611328125,36.69108189967253,0.0765814060346187,-0.07531749126723497,70
1764364832.1384418,329,1.6064453125,36.56532800185976,-0.2266809618624559,-0.2010713890800062,71
1764364832.2402987,337,1.6455078125,36.814038543989376,2.1994179813141406,0.04763915304960875,71
1764364832.3416164,335,1.6357421875,36.57395730194135,1.5928932455199916,-0.19244208899841908,71
1764364832.4427564,337,1.6455078125,36.80175281156751,2.1994179813141406,0.03535342062774305,71
1764364832.5439186,324,1.58203125,36.88065458268936,-1.7429928013478289,0.1142551917495922,72
1764364832.645153,323,1.5771484375,36.73567266744112,-2.0462551692449034,-0.03072672349864547,75
1764364832.7465634,333,1.6259765625,36.911264645059056,0.9863685097258426,0.14486525411928852,76
1764364832.8479915,330,1.611328125,36.611005886745374,0.0765814060346187,-0.15539350419439302,77
1764364832.9492946,333,1.6259765625,36.782634018395875,0.9863685097258426,0.016234627456107376,77
1764364833.0504081,335,1.6357421875,36.91724690886236,1.5928932455199916,0.15084751792259254,78
1764364833.151307,328,1.6015625,36.93906986511411,-0.5299433297595305,0.172670474174339,76
1764364833.2523115,325,1.5869140625,36.679815662519175,-1.4397304334507544,-0.08658372842059237,75
1764364833.3540995,323,1.5771484375,36.61856264438496,-2.0462551692449034,-0.14783674655480894,75
1764364833.4551814,339,1.6552734375,36.83528345898949,2.8059427171082905,0.06888406804971936,74
1764364833.556795,326,1.591796875,36.69848185883148,-1.1364680655536796,-0.06791753210828944,74
1764364833.6579523,336,1.640625,36.61106701459511,1.896155613417066,-0.1553323763446599,75
1764364833.7591178,333,1.6259765625,36.68954480848631,0.9863685097258426,-0.076854582453457,74
1764364833.859958,334,1.630859375,36.75594706169688,1.289630877622917,-0.01045232924288797,74
1764364833.9627256,329,1.6064453125,36.736885124577164,-0.2266809618624559,-0.02951426636260379,74
1764364834.0639505,339,1.6552734375,36.67157505209661,2.8059427171082905,-0.09482433884316066,74
1764364834.1653483,336,1.640625,36.78482205029751,1.896155613417066,0.018422659357739235,73
1764364834.2668326,331,1.6162109375,36.799395948172766,0.37984377393169333,0.032996557232998214,74
1764364834.3679628,323,1.5771484375,36.942588536451304,-2.0462551692449034,0.17618914551153608,75
1764364834.4689894,330,1.611328125,36.8725416005252,0.0765814060346187,0.10614220958543541,76
1764364834.5699823,334,1.630859375,36.941896341464016,1.289630877622917,0.17549695052424852,76
1764364834.6711318,337,1.6455078125,36.58550302237063,2.1994179813141406,-0.1808963685691367,77
1764364834.7725346,323,1.5771484375,36.95246551967705,-2.0462551692449034,0.18606612873728068,78
1764364834.8736238,322,1.572265625,36.61754554837578,-2.349517537141978,-0.14885384256398737,78
1764364834.9751778,339,1.6552734375,36.677174321104204,2.8059427171082905,-0.08922506983556389,78
1764364835.0763192,324,1.58203125,36.77195594357694,-1.7429928013478289,0.005556552637173695,77
1764364835.1777256,337,1.6455078125,36.797135120983434,2.1994179813141406,0.030735730043666365,77
1764364835.27939,324,1.58203125,36.621354294986986,-1.7429928013478289,-0.14504509595278137,77
1764364835.3804057,321,1.5673828125,36.739312248962165,-2.652779905039053,-0.02708714197760287,77
1764364835.4820004,339,1.6552734375,36.65972394595593,2.8059427171082905,-0.10667544498383563,74
1764364835.5833454,330,1.611328125,36.9468659248172,0.0765814060346187,0.1804665338774356,73
1764364835.6843972,325,1.5869140625,36.87546512038272,-1.4397304334507544,0.10906572944295334,72
1764364835.7853158,328,1.6015625,36.909670964903405,-0.5299433297595305,0.14327157396363788,70
1764364835.8865273,327,1.5966796875,36.60233033289214,-0.8332056976566051,-0.16406905804763028,69
1764364835.9875379,333,1.6259765625,36.57969214110162,0.9863685097258426,-0.18670724983815035,70
1764364836.0887477,324,1.58203125,36.82820070043127,-1.7429928013478289,0.06180130949149998,71
1764364836.1896982,330,1.611328125,36.879623351009634,0.0765814060346187,0.11322396006986679,72
1764364836.29122,338,1.650390625,36.95247914101149,2.5026803492112157,0.18607975007171973,72
1764364836.3922548,329,1.6064453125,36.918291238830946,-0.2266809618624559,0.1518918478911786,73
1764364836.493898,330,1.611328125,36.89670126258242,0.0765814060346187,0.13030187164265072,75
1764364836.5951843,340,1.66015625,36.939998126816185,3.1092050850053647,0.17359873587641772,75
1764364836.6966295,334,1.630859375,36.94621118654347,1.289630877622917,0.17981179560370464,75
1764364836.7981884,333,1.6259765625,36.88728292531173,0.9863685097258426,0.12088353437196275,73
1764364836.899279,327,1.5966796875,36.92155429611438,-0.8332056976566051,0.15515490517461217,71
1764364837.000202,326,1.591796875,36.758777909596496,-1.1364680655536796,-0.007621481343271341,69
1764364837.1011236,329,1.6064453125,36.95087135964834,-0.2266809618624559,0.1844719687085714,67
1764364837.2025547,334,1.630859375,36.90888827172456,1.289630877622917,0.14248888078478927,65
1764364837.3035922,337,1.6455078125,36.84415489363243,2.1994179813141406,0.07775550269266063,65
1764364837.4052188,337,1.6455078125,36.815167733880074,2.1994179813141406,0.0487683429403063,66
1764364837.5069613,339,1.6552734375,36.88058042502106,2.8059427171082905,0.11418103408129099,67
1764364837.608188,326,1.591796875,36.7576155306809,-1.1364680655536796,-0.008783860258866127,68
1764364837.7090814,325,1.5869140625,36.7323032638821,-1.4397304334507544,-0.034096127057665626,68
1764364837.8104794,338,1.650390625,36.894010834541746,2.5026803492112157,0.12761144360197818,67
1764364837.9119642,332,1.62109375,36.62470862588725,0.6831061418287679,-0.1416907650525161,66
1764364838.0133157,325,1.5869140625,36.74218096142759,-1.4397304334507544,-0.024218429512174566,63
1764364838.1146553,331,1.6162109375,36.62803866401456,0.37984377393169333,-0.13836072692520673,60
1764364838.215758,328,1.6015625,36.81963829377295,-0.5299433297595305,0.053238902833179225,58
1764364838.3165991,336,1.640625,36.86130508957755,1.896155613417066,0.0949056986377812,59
1764364838.4178958,327,1.5966796875,36.66364816323852,-0.8332056976566051,-0.10275122770124767,60
1764364838.5189555,327,1.5966796875,36.60885682862195,-0.8332056976566051,-0.15754256231781483,63
1764364838.620044,337,1.6455078125,36.69137623402633,2.1994179813141406,-0.07502315691343853,66
1764364838.7213995,330,1.611328125,36.738993481784306,0.0765814060346187,-0.027405909155461927,67
1764364838.8227212,325,1.5869140625,36.70942889854421,-1.4397304334507544,-0.05697049239555696,66
1764364838.9242516,335,1.6357421875,36.905132584536354,1.5928932455199916,0.1387331935965861,63
1764364839.0253346,340,1.66015625,36.61175572264166,3.1092050850053647,-0.15464366829810672,60
1764364839.129172,338,1.650390625,36.78173189604766,2.5026803492112157,0.015332505107892302,58
1764364839.230463,338,1.650390625,36.60001320595011,2.5026803492112157,-0.16638618498965485,59
1764364839.3315406,326,1.591796875,36.85527941038931,-1.1364680655536796,0.08888001944954027,59
1764364839.432687,341,1.6650390625,36.841797332363676,3.4124674529024395,0.07539794142390832,60
1764364839.5336328,332,1.62109375,36.80240959269632,0.6831061418287679,0.036010201756553784,60
1764364839.6346304,325,1.5869140625,36.84860092968118,-1.4397304334507544,0.08220153874141545,60
1764364839.7355986,324,1.58203125,36.71640848405066,-1.7429928013478289,-0.04999090688910712,60
1764364839.8368928,321,1.5673828125,36.712983843484515,-2.652779905039053,-0.05341554745525201,58
1764364839.9382808,328,1.6015625,36.63791120175902,-0.5299433297595305,-0.1284881891807501,58
1764364840.0394976,336,1.640625,36.910773046345085,1.896155613417066,0.14437365540531744,58
1764364840.14035,325,1.5869140625,36.795254680064474,-1.4397304334507544,0.028855289124706474,59
1764364840.2412302,323,1.5771484375,36.77798710202808,-2.0462551692449034,0.01158771108831047,59
1764364840.3426647,323,1.5771484375,36.84220495009435,-2.0462551692449034,0.0758055591545812,59
1764364840.4449053,333,1.6259765625,36.80928033803018,0.9863685097258426,0.042880947090409904,60
1764364840.5476954,323,1.5771484375,36.768997433362365,-2.0462551692449034,0.002598042422597757,62
1764364840.6488972,339,1.6552734375,36.9189770999176,2.8059427171082905,0.15257770897783018,62
1764364840.749752,331,1.6162109375,36.66713032683033,0.37984377393169333,-0.09926906410943559,63
1764364840.8509629,322,1.572265625,36.68299607082393,-2.349517537141978,-0.08340332011583484,65
1764364840.9528496,331,1.6162109375,36.7259296034991,0.37984377393169333,-0.04046978744067076,67
1764364841.0544028,325,1.5869140625,36.57651711415263,-1.4397304334507544,-0.18988227678713798,68
1764364841.155486,321,1.5673828125,36.57575390479491,-2.652779905039053,-0.19064548614485943,69
1764364841.256494,338,1.650390625,36.87608473955728,2.5026803492112157,0.10968534861751067,69
1764364841.357425,335,1.6357421875,36.881792520964936,1.5928932455199916,0.11539313002516849,68
1764364841.458879,328,1.6015625,36.75567955483807,-0.5299433297595305,-0.010719836101699798,67
1764364841.559937,332,1.62109375,36.60689611713938,0.6831061418287679,-0.15950327380038942,67
