timestamp,ecg_raw,ecg_voltage,temperature,ecg_change_percent,temp_change_celsius,bpm
1764359794.0857084,338,1.650390625,36.82928119270808,-2.2188792779240263,0.07965021392458738,60
1764359794.1870632,332,1.62109375,36.83410457662746,-3.954638817369162,0.08447359784396724,60
1764359794.2883804,338,1.650390625,36.62805229300813,-2.2188792779240263,-0.12157868577536135,60
1764359794.3894236,332,1.62109375,36.95287911474633,-3.954638817369162,0.20324813596283775,60
1764359794.490741,329,1.6064453125,36.783641551435494,-4.82251858709173,0.0340105726520008,60
1764359794.5920448,337,1.6455078125,36.71641676252912,-2.5081725344982155,-0.03321421625437182,60
1764359794.6939402,339,1.6552734375,36.765193337163765,-1.9295860213498373,0.015562358380272201,60
1764359794.798349,340,1.66015625,36.57761866415075,-1.6402927647756478,-0.17201231463274524,60
1764359794.8992348,321,1.5673828125,36.72996350452783,-7.1368646396852435,-0.019667474255662398,60
1764359795.0005257,324,1.58203125,36.63802887216969,-6.268984869962677,-0.11160210661380177,60
1764359795.1018536,321,1.5673828125,36.65567602714101,-7.1368646396852435,-0.09395495164248047,60
1764359795.2029545,325,1.5869140625,36.890508320901006,-5.9796916133884865,0.14087734211751268,60
1764359795.3042276,324,1.58203125,36.62280004057374,-6.268984869962677,-0.1268309382097499,60
1764359795.405576,329,1.6064453125,36.87773633282354,-4.82251858709173,0.12810535404004497,60
1764359795.5073445,326,1.591796875,36.90925227177224,-5.690398356814297,0.15962129298874572,60
1764359795.6085742,339,1.6552734375,36.89055221840969,-1.9295860213498373,0.14092123962619496,60
1764359795.7100763,334,1.630859375,36.78946553269748,-3.3760523042207833,0.03983455391398394,60
1764359795.8114908,338,1.650390625,36.587932751408395,-2.2188792779240263,-0.16169822737509776,60
1764359795.9139197,327,1.5966796875,36.61732520187059,-5.401105100240108,-0.1323057769129008,60
1764359796.0153964,324,1.58203125,36.65451726912508,-6.268984869962677,-0.09511370965841337,60
1764359796.11632,333,1.6259765625,36.570989770720914,-3.6653455607949725,-0.17864120806257944,60
1764359796.2175481,334,1.630859375,36.70844696237206,-3.3760523042207833,-0.04118401641143521,60
1764359796.3188455,323,1.5771484375,36.723478775092566,-6.558278126536865,-0.026152203690926967,60
1764359796.4199796,339,1.6552734375,36.64276924276214,-1.9295860213498373,-0.10686173602135085,60
1764359796.5208578,332,1.62109375,36.92671261458004,-3.954638817369162,0.17708163579654723,60
1764359796.6217854,322,1.572265625,36.86126033975938,-6.847571383111055,0.11162936097588982,60
1764359796.7230275,339,1.6552734375,36.909589399252575,-1.9295860213498373,0.15995842046908137,60
1764359796.8239725,323,1.5771484375,36.87969162844436,-6.558278126536865,0.1300606496608694,60
1764359796.9252243,329,1.6064453125,36.85816721214787,-4.82251858709173,0.10853623336437579,60
1764359797.0266879,335,1.6357421875,36.93652867654006,-3.0867590476465945,0.18689769775656373,60
1764359797.12823,334,1.630859375,36.77892480015388,-3.3760523042207833,0.029293821370387718,60
1764359797.229695,336,1.640625,36.669837431131725,-2.797465791072405,-0.07979354765176794,60
1764359797.3309846,325,1.5869140625,36.94238426731102,-5.9796916133884865,0.19275328852752693,60
1764359797.4319851,329,1.6064453125,36.63015170070174,-4.82251858709173,-0.11947927808175507,60
1764359797.5333815,330,1.611328125,36.694257501953764,-4.533225330517541,-0.05537347682972893,60
1764359797.6352026,330,1.611328125,36.59366561901198,-4.533225330517541,-0.15596535977151404,60
1764359797.7372375,332,1.62109375,36.872940049333714,-3.954638817369162,0.12330907055022067,60
1764359797.838153,326,1.591796875,36.94817965592746,-5.690398356814297,0.19854867714396818,60
1764359797.9398043,321,1.5673828125,36.94580160034488,-7.1368646396852435,0.19617062156138587,60
1764359798.0408988,321,1.5673828125,36.872548123703275,-7.1368646396852435,0.12291714491978212,60
1764359798.1421638,322,1.572265625,36.731273611762354,-6.847571383111055,-0.01835736702113877,60
1764359798.243258,324,1.58203125,36.922564303666576,-6.268984869962677,0.17293332488308266,60
1764359798.3444173,341,1.6650390625,36.954114395487885,-1.3509995082014585,0.20448341670439163,60
1764359798.445475,324,1.58203125,36.596370174168015,-6.268984869962677,-0.15326080461547775,60
1764359798.546857,338,1.650390625,36.89118111397241,-2.2188792779240263,0.1415501351889148,60
1764359798.6479676,328,1.6015625,36.675805895372164,-5.111811843665919,-0.07382508341132876,60
1764359798.7491114,323,1.5771484375,36.61607154457393,-6.558278126536865,-0.13355943420956606,60
1764359798.850157,339,1.6552734375,36.87841818015689,-1.9295860213498373,0.12878720137339883,60
1764359798.9512987,321,1.5673828125,36.92088573716796,-7.1368646396852435,0.1712547583844639,60
1764359799.0529497,329,1.6064453125,36.729472982007415,-4.82251858709173,-0.02015799677607788,60
1764359799.1544254,324,1.58203125,36.95562788405413,-6.268984869962677,0.20599690527063785,60
1764359799.2557359,335,1.6357421875,36.57185304007223,-3.0867590476465945,-0.1777779387112659,60
1764359799.3570988,327,1.5966796875,36.66436435956556,-5.401105100240108,-0.08526661921793277,60
1764359799.4582498,325,1.5869140625,36.56005512294466,-5.9796916133884865,-0.1895758558388323,60
1764359799.560111,332,1.62109375,36.81456084965676,-3.954638817369162,0.0649298708732644,60
1764359799.6614492,323,1.5771484375,36.82511776899021,-6.558278126536865,0.07548679020671756,60
1764359799.7625954,330,1.611328125,36.745688785281615,-4.533225330517541,-0.003942193501877966,60
1764359799.863563,334,1.630859375,36.58627559478276,-3.3760523042207833,-0.1633553840007309,60
1764359799.9656034,331,1.6162109375,36.59752505918128,-4.243932073943351,-0.15210591960221365,60
1764359800.067303,334,1.630859375,36.63970104489436,-3.3760523042207833,-0.10992993388913419,60
1764359800.1686134,337,1.6455078125,36.74136361710404,-2.5081725344982155,-0.008267361679450858,60
1764359800.2701445,324,1.58203125,36.59629016881516,-6.268984869962677,-0.1533408099683342,60
1764359800.3717294,330,1.611328125,36.68302004892904,-4.533225330517541,-0.06661092985445549,60
1764359800.4731846,331,1.6162109375,36.936597220495976,-4.243932073943351,0.18696624171248288,60
1764359800.574621,336,1.640625,36.71923309963906,-2.797465791072405,-0.030397879144430817,60
1764359800.6763039,337,1.6455078125,36.84357550069253,-2.5081725344982155,0.09394452190903735,60
1764359800.7771986,327,1.5966796875,36.589257067098465,-5.401105100240108,-0.1603739116850278,60
1764359800.878299,325,1.5869140625,36.849429767845145,-5.9796916133884865,0.0997987890616514,60
1764359800.9802892,330,1.611328125,36.58424489324967,-4.533225330517541,-0.16538608553382517,60
1764359801.0814486,324,1.58203125,36.563655594285535,-6.268984869962677,-0.18597538449795792,60
1764359801.1828618,323,1.5771484375,36.94676019532275,-6.558278126536865,0.19712921653925974,60
1764359801.2840412,327,1.5966796875,36.612440962931494,-5.401105100240108,-0.1371900158519992,60
1764359801.3852015,334,1.630859375,36.69363718804426,-3.3760523042207833,-0.055993790739236715,60
1764359801.4861214,339,1.6552734375,36.826763567228305,-1.9295860213498373,0.07713258844481174,60
1764359801.5877817,333,1.6259765625,36.566288536101666,-3.6653455607949725,-0.18334244268182687,60
1764359801.6887772,339,1.6552734375,36.76232632036331,-1.9295860213498373,0.012695341579814112,60
1764359801.7903345,323,1.5771484375,36.7974486946426,-6.558278126536865,0.04781771585910377,60
1764359801.8919473,336,1.640625,36.6874790921458,-2.797465791072405,-0.06215188663769311,60
1764359801.9937658,334,1.630859375,36.894084267450324,-3.3760523042207833,0.14445328866683127,60
1764359802.0950177,339,1.6552734375,36.75877622010311,-1.9295860213498373,0.009145241319615138,60
1764359802.1962821,340,1.66015625,36.868769579798474,-1.6402927647756478,0.1191386010149813,60
1764359802.2976851,321,1.5673828125,36.6209766166183,-7.1368646396852435,-0.128654362165193,60
1764359802.3987815,322,1.572265625,36.75528466011432,-6.847571383111055,0.005653681330826998,60
1764359802.5003295,331,1.6162109375,36.56804777116069,-4.243932073943351,-0.18158320762280056,57
1764359802.6015074,340,1.66015625,36.838531699123514,-1.6402927647756478,0.08890072034002117,53
1764359802.7025902,326,1.591796875,36.643516971849756,-5.690398356814297,-0.10611400693373696,53
1764359802.803835,336,1.640625,36.90921202862737,-2.797465791072405,0.15958104984387944,53
1764359802.9053679,332,1.62109375,36.843667998457214,-3.954638817369162,0.09403701967372058,53
1764359803.006609,333,1.6259765625,36.73108183172859,-3.6653455607949725,-0.01854914705490529,53
1764359803.1084027,340,1.66015625,36.580197976240775,-1.6402927647756478,-0.16943300254271776,53
1764359803.209881,337,1.6455078125,36.94824841203274,-2.5081725344982155,0.19861743324924674,49
1764359803.3108754,340,1.66015625,36.684935490619374,-1.6402927647756478,-0.0646954881641193,49
1764359803.411909,338,1.650390625,36.791722564138574,-2.2188792779240263,0.04209158535508095,50
1764359803.513951,327,1.5966796875,36.686468808479916,-5.401105100240108,-0.06316217030357762,49
1764359803.6155963,338,1.650390625,36.631658307757206,-2.2188792779240263,-0.11797267102628695,52
1764359803.7166986,339,1.6552734375,36.76164324350112,-1.9295860213498373,0.012012264717625953,55
1764359803.8184748,327,1.5966796875,36.79021961700172,-5.401105100240108,0.04058863821822456,60
1764359803.9196818,329,1.6064453125,36.77648231599631,-4.82251858709173,0.026851337212818294,61
1764359804.0217366,330,1.611328125,36.80467930342938,-4.533225330517541,0.05504832464588816,63
1764359804.122991,336,1.640625,36.852589630805106,-2.797465791072405,0.1029586520216128,65
1764359804.2253296,322,1.572265625,36.69919946610554,-6.847571383111055,-0.050431512677953094,66
1764359804.3272755,340,1.66015625,36.657921856300334,-1.6402927647756478,-0.09170912248315943,65
1764359804.4286048,322,1.572265625,36.85172025631409,-6.847571383111055,0.10208927753059527,64
1764359804.5296948,339,1.6552734375,36.58090101062141,-1.9295860213498373,-0.16872996816208286,64
1764359804.6318011,333,1.6259765625,36.79233277555279,-3.6653455607949725,0.04270179676929331,62
1764359804.7333117,332,1.62109375,36.9591305898296,-3.954638817369162,0.20949961104610537,63
1764359804.8348212,321,1.5673828125,36.86934139002386,-7.1368646396852435,0.1197104112403693,64
1764359804.9362926,323,1.5771484375,36.75524269113092,-6.558278126536865,0.005611712347423747,65
1764359805.0376556,339,1.6552734375,36.641669734470504,-1.9295860213498373,-0.10796124431298892,67
1764359805.1397078,338,1.650390625,36.83467169710322,-2.2188792779240263,0.08504071831972482,68
1764359805.241212,332,1.62109375,36.80819650293948,-3.954638817369162,0.0585655241559877,70
1764359805.3426905,338,1.650390625,36.63900620921347,-2.2188792779240263,-0.11062476957002332,70
1764359805.4441206,332,1.62109375,36.671535013845144,-3.954638817369162,-0.07809596493834903,67
1764359805.5455031,325,1.5869140625,36.86132862913609,-5.9796916133884865,0.11169765035259616,68
1764359805.6470594,340,1.66015625,36.688086294537634,-1.6402927647756478,-0.06154468424585957,67
1764359805.74865,338,1.650390625,36.71164627824017,-2.2188792779240263,-0.037984700543326255,66
1764359805.8501275,339,1.6552734375,36.59776324027898,-1.9295860213498373,-0.15186773850451374,67
1764359805.951797,339,1.6552734375,36.757794775578574,-1.9295860213498373,0.008163796795081169,69
1764359806.0531867,324,1.58203125,36.8121013833254,-6.268984869962677,0.06247040454190511,68
1764359806.1543288,329,1.6064453125,36.71258537557035,-4.82251858709173,-0.03704560321314432,68
1764359806.25665,332,1.62109375,36.5924320037954,-3.954638817369162,-0.15719897498809132,68
1764359806.3581798,322,1.572265625,36.57214961663004,-6.847571383111055,-0.17748136215345056,67
1764359806.460151,332,1.62109375,36.89414903510029,-3.954638817369162,0.14451805631679804,65
1764359806.5614367,329,1.6064453125,36.84587665877707,-4.82251858709173,0.09624567999357936,64
1764359806.6632762,324,1.58203125,36.58792704174426,-6.268984869962677,-0.1617039370392348,63
1764359806.7649322,338,1.650390625,36.82301942919862,-2.2188792779240263,0.07338845041512343,63
1764359806.8663955,340,1.66015625,36.7018395477306,-1.6402927647756478,-0.047791431052893074,62
1764359806.9674122,335,1.6357421875,36.937134599679,-3.0867590476465945,0.1875036208955052,63
1764359807.0690024,325,1.5869140625,36.77267127212411,-5.9796916133884865,0.02304029334061397,64
1764359807.170168,340,1.66015625,36.68442513484532,-1.6402927647756478,-0.0652058439381733,66
1764359807.272151,329,1.6064453125,36.84121462275494,-4.82251858709173,0.0915836439714468,65
1764359807.3748198,326,1.591796875,36.92287651567858,-5.690398356814297,0.17324553689508804,65
1764359807.476418,327,1.5966796875,36.880999217168274,-5.401105100240108,0.1313682383847805,65
1764359807.577757,328,1.6015625,36.628956836777384,-5.111811843665919,-0.12067414200610926,63
1764359807.6791503,332,1.62109375,36.60489665298058,-3.954638817369162,-0.144734325802915,62
1764359807.78042,330,1.611328125,36.82421094205935,-4.533225330517541,0.07457996327585903,62
1764359807.8819177,324,1.58203125,36.81827196208734,-6.268984869962677,0.06864098330384394,62
1764359807.9831808,336,1.640625,36.580008986764106,-2.797465791072405,-0.16962199201938688,62
1764359808.0843153,329,1.6064453125,36.61184801421126,-4.82251858709173,-0.1377829645722315,62
1764359808.1854231,339,1.6552734375,36.71286656035034,-1.9295860213498373,-0.036764418433151036,62
1764359808.287054,322,1.572265625,36.70488099188043,-6.847571383111055,-0.04474998690306364,63
1764359808.388802,329,1.6064453125,36.56732506102469,-4.82251858709173,-0.18230591775880356,63
1764359808.4904742,323,1.5771484375,36.651426699538014,-6.558278126536865,-0.09820427924547914,62
1764359808.5926104,323,1.5771484375,36.91195237538172,-6.558278126536865,0.1623213965982302,61
1764359808.6939886,339,1.6552734375,36.87994108849149,-1.9295860213498373,0.13031010970799883,60
1764359808.795647,325,1.5869140625,36.669386942452576,-5.9796916133884865,-0.08024403633091737,59
1764359808.8971658,332,1.62109375,36.803037160334576,-3.954638817369162,0.053406181551082454,61
1764359808.9981518,339,1.6552734375,36.69441418259123,-1.9295860213498373,-0.05521679619226205,63
1764359809.0994756,321,1.5673828125,36.71345401930975,-7.1368646396852435,-0.03617695947374244,63
1764359809.2009008,329,1.6064453125,36.95773884801725,-4.82251858709173,0.20810786923375701,64
1764359809.3022852,326,1.591796875,36.83269618829776,-5.690398356814297,0.08306520951426677,64
1764359809.4039006,326,1.591796875,36.82730332754336,-5.690398356814297,0.07767234875986873,63
1764359809.5051534,325,1.5869140625,36.89674777614669,-5.9796916133884865,0.14711679736319638,62
1764359809.607018,322,1.572265625,36.68065467001808,-6.847571383111055,-0.06897630876541427,62
1764359809.7083626,324,1.58203125,36.816365685032714,-6.268984869962677,0.06673470624922118,62
1764359809.8099153,340,1.66015625,36.74337542640205,-1.6402927647756478,-0.006255552381446705,62
1764359809.9116583,325,1.5869140625,36.7701239600235,-5.9796916133884865,0.02049298124000387,62
1764359810.0130107,327,1.5966796875,36.65970992518408,-5.401105100240108,-0.0899210535994115,62
1764359810.1141562,332,1.62109375,36.686633018809864,-3.954638817369162,-0.06299795997362878,62
1764359810.2151515,340,1.66015625,36.82189627693044,-1.6402927647756478,0.07226529814694516,63
1764359810.3165834,339,1.6552734375,36.724049283680856,-1.9295860213498373,-0.025581695102637525,64
1764359810.418081,336,1.640625,36.86473819841061,-2.797465791072405,0.11510721962712012,65
1764359810.5191605,326,1.591796875,36.89258248358507,-5.690398356814297,0.14295150480158014,65
1764359810.6208756,337,1.6455078125,36.92845161775643,-2.5081725344982155,0.17882063897293676,65
1764359810.7223892,340,1.66015625,36.87951939388715,-1.6402927647756478,0.12988841510365745,64
1764359810.8237798,341,1.6650390625,36.770822460164695,-1.3509995082014585,0.021191481381201527,63
1764359810.9250832,340,1.66015625,36.92400532332947,-1.6402927647756478,0.17437434454597422,62
1764359811.0263388,333,1.6259765625,36.668665371396344,-3.6653455607949725,-0.08096560738714942,63
1764359811.1277583,327,1.5966796875,36.85064882193499,-5.401105100240108,0.10101784315149587,63
1764359811.2286704,329,1.6064453125,36.674818394495055,-4.82251858709173,-0.07481258428843773,64
1764359811.3298688,321,1.5673828125,36.614687668300334,-7.1368646396852435,-0.134943310483159,64
1764359811.4316988,337,1.6455078125,36.678340371545886,-2.5081725344982155,-0.07129060723760716,65
1764359811.5328922,337,1.6455078125,36.842804997588026,-2.5081725344982155,0.09317401880453247,65
1764359811.6338568,329,1.6064453125,36.771531332530955,-4.82251858709173,0.02190035374746202,66
1764359811.735115,339,1.6552734375,36.798720126681644,-1.9295860213498373,0.049089147898151,67
1764359811.8368871,336,1.640625,36.77809378331945,-2.797465791072405,0.0284628045359554,66
1764359811.9386728,321,1.5673828125,36.865496393923316,-7.1368646396852435,0.1158654151398224,67
1764359812.0399911,336,1.640625,36.707646772843006,-2.797465791072405,-0.04198420594048713,68
1764359812.141183,323,1.5771484375,36.909785848499276,-6.558278126536865,0.1601548697157824,68
1764359812.2422876,338,1.650390625,36.796790343728325,-2.2188792779240263,0.047159364944832305,67
1764359812.3434634,334,1.630859375,36.85854175506682,-3.3760523042207833,0.10891077628332368,68
1764359812.4447372,327,1.5966796875,36.602909742138,-5.401105100240108,-0.1467212366454902,68
1764359812.5462596,324,1.58203125,36.67930414581789,-6.268984869962677,-0.07032683296560549,69
1764359812.6472418,324,1.58203125,36.60788479951623,-6.268984869962677,-0.1417461792672654,68
1764359812.7484765,326,1.591796875,36.622251306660296,-5.690398356814297,-0.12737967212319745,68
1764359812.8501103,335,1.6357421875,36.78824509196671,-3.0867590476465945,0.03861411318321473,68
1764359812.9514203,329,1.6064453125,36.91113347036184,-4.82251858709173,0.1615024915783465,68
1764359813.053144,326,1.591796875,36.871464245681246,-5.690398356814297,0.12183326689775242,67
1764359813.1545298,326,1.591796875,36.94311523342202,-5.690398356814297,0.19348425463852692,67
1764359813.2561104,322,1.572265625,36.65904378093634,-6.847571383111055,-0.09058719784715663,67
1764359813.3572829,333,1.6259765625,36.85223968054907,-3.6653455607949725,0.10260870176557546,66
1764359813.4587176,323,1.5771484375,36.68006312912386,-6.558278126536865,-0.06956784965963436,65
1764359813.5599356,322,1.572265625,36.9416411602362,-6.847571383111055,0.19201018145270865,65
1764359813.6613154,322,1.572265625,36.948661986761394,-6.847571383111055,0.19903100797790074,65
1764359813.76257,321,1.5673828125,36.759695360061876,-7.1368646396852435,0.010064381278382939,65
1764359813.8639808,328,1.6015625,36.901051734922945,-5.111811843665919,0.15142075613945138,65
1764359813.9653318,321,1.5673828125,36.597648877085625,-7.1368646396852435,-0.1519821016978682,64
1764359814.0668027,330,1.611328125,36.93334358887963,-4.533225330517541,0.18371261009613704,64
1764359814.168897,322,1.572265625,36.74346326174052,-6.847571383111055,-0.0061677170429703665,64
1764359814.2710247,329,1.6064453125,36.743338148585316,-4.82251858709173,-0.006292830198177057,64
1764359814.3721163,331,1.6162109375,36.87580125182223,-4.243932073943351,0.1261702730387384,63
1764359814.473075,336,1.640625,36.929016598274714,-2.797465791072405,0.1793856194912209,61
1764359814.5743105,322,1.572265625,36.795120436838225,-6.847571383111055,0.04548945805473181,60
1764359814.6754525,333,1.6259765625,36.66615027554585,-3.6653455607949725,-0.08348070323764034,59
1764359814.7764513,320,1.5625,36.88987806509902,-7.426157896259433,0.14024708631552585,58
1764359814.878149,327,1.5966796875,36.66501638023366,-5.401105100240108,-0.08461459854983389,58
1764359814.9794157,321,1.5673828125,36.81764948380982,-7.1368646396852435,0.06801850502632334,58
1764359815.080594,327,1.5966796875,36.934055857546795,-5.401105100240108,0.18442487876330205,57
1764359815.1826854,333,1.6259765625,36.84237158164436,-3.6653455607949725,0.09274060286086439,56
1764359815.2841702,340,1.66015625,36.89833305569428,-1.6402927647756478,0.14870207691078718,56
1764359815.3861907,328,1.6015625,36.907399967364825,-5.111811843665919,0.15776898858133137,56
1764359815.4879858,321,1.5673828125,36.80329192346122,-7.1368646396852435,0.05366094467772342,55
1764359815.5892284,335,1.6357421875,36.677614483214114,-3.0867590476465945,-0.07201649556937895,56
1764359815.6902883,339,1.6552734375,36.64209547174918,-1.9295860213498373,-0.10753550703431358,57
1764359815.7912757,327,1.5966796875,36.597120405242876,-5.401105100240108,-0.15251057354061714,57
1764359815.8924026,333,1.6259765625,36.638804875221645,-3.6653455607949725,-0.1108261035618483,58
1764359815.9937782,336,1.640625,36.689332729858506,-2.797465791072405,-0.06029824892498681,58
1764359816.095196,324,1.58203125,36.85220706576664,-6.268984869962677,0.10257608698314868,59
1764359816.1965027,331,1.6162109375,36.818886680931676,-4.243932073943351,0.06925570214818322,60
1764359816.2980993,335,1.6357421875,36.645637802292185,-3.0867590476465945,-0.10399317649130779,61
1764359816.3999069,328,1.6015625,36.916947863807714,-5.111811843665919,0.1673168850242206,61
1764359816.5031903,326,1.591796875,36.743383395176835,-5.690398356814297,-0.006247583606658225,62
1764359816.6043952,333,1.6259765625,36.639106004984704,-3.6653455607949725,-0.110524973798789,62
1764359816.7060053,324,1.58203125,36.58845317761725,-6.268984869962677,-0.16117780116624658,62
1764359816.8075206,339,1.6552734375,36.75474015074725,-1.9295860213498373,0.005109171963759707,63
1764359816.9087186,322,1.572265625,36.562001425851165,-6.847571383111055,-0.18762955293232864,63
1764359817.0101342,331,1.6162109375,36.834898490281404,-4.243932073943351,0.08526751149791068,63
1764359817.1115973,324,1.58203125,36.62860361779845,-6.268984869962677,-0.12102736098504607,63
1764359817.2130246,338,1.650390625,36.713547079596,-2.2188792779240263,-0.03608389918749566,63
1764359817.314621,325,1.5869140625,36.83223177505319,-5.9796916133884865,0.08260079626969485,63
1764359817.4159262,332,1.62109375,36.71452172157594,-3.954638817369162,-0.035109257207551536,63
1764359817.517287,337,1.6455078125,36.72788670106381,-2.5081725344982155,-0.02174427771968368,63
1764359817.6185887,331,1.6162109375,36.945721343203715,-4.243932073943351,0.19609036442022187,63
1764359817.7201917,323,1.5771484375,36.908465646130814,-6.558278126536865,0.1588346673473211,64
1764359817.821641,323,1.5771484375,36.79457882330398,-6.558278126536865,0.04494784452048606,64
1764359817.922625,337,1.6455078125,36.86787296037316,-2.5081725344982155,0.11824198158966936,64
1764359818.023929,329,1.6064453125,36.782054458917436,-4.82251858709173,0.03242348013394292,64
1764359818.1256042,333,1.6259765625,36.9391603282994,-3.6653455607949725,0.18952934951590805,64
1764359818.2269647,324,1.58203125,36.87916775144939,-6.268984869962677,0.1295367726658938,62
1764359818.3279145,334,1.630859375,36.60641142069788,-3.3760523042207833,-0.1432195580856117,61
1764359818.4289556,336,1.640625,36.6325301848389,-2.797465791072405,-0.11710079394459427,60
1764359818.5301561,325,1.5869140625,36.947585945058464,-5.9796916133884865,0.19795496627497045,59
1764359818.6321046,323,1.5771484375,36.675205739779564,-6.558278126536865,-0.07442523900392928,59
1764359818.734002,337,1.6455078125,36.61951793579344,-2.5081725344982155,-0.13011304299005388,59
1764359818.835125,331,1.6162109375,36.73443220610772,-4.243932073943351,-0.015198772675773853,60
1764359818.9366853,334,1.630859375,36.94723666213624,-3.3760523042207833,0.19760568335274797,61
1764359819.0379014,325,1.5869140625,36.62133139791374,-5.9796916133884865,-0.12829958086975068,62
1764359819.1391082,337,1.6455078125,36.80969753623029,-2.5081725344982155,0.06006655744679534,64
1764359819.240324,332,1.62109375,36.63277848756456,-3.954638817369162,-0.11685249121893548,65
1764359819.3414876,320,1.5625,36.58406021433549,-7.426157896259433,-0.165570764448006,67
1764359819.4424458,337,1.6455078125,36.71299624797149,-2.5081725344982155,-0.03663473081200408,68
1764359819.544235,331,1.6162109375,36.599110213427274,-4.243932073943351,-0.1505207653562195,67
1764359819.6454563,323,1.5771484375,36.66799816319916,-6.558278126536865,-0.0816328155843351,66
1764359819.7468703,333,1.6259765625,36.78010042836156,-3.6653455607949725,0.030469449578063745,66
1764359819.8484352,328,1.6015625,36.921609635005645,-5.111811843665919,0.17197865622215147,65
1764359819.9497983,332,1.62109375,36.92203274415791,-3.954638817369162,0.17240176537441698,66
1764359820.051109,332,1.62109375,36.60798857953016,-3.954638817369162,-0.14164239925333533,68
1764359820.1522012,333,1.6259765625,36.57085319806446,-3.6653455607949725,-0.17877778071903094,68
1764359820.2532887,332,1.62109375,36.58740865634475,-3.954638817369162,-0.16222232243874402,68
1764359820.3548274,328,1.6015625,36.676192275082826,-5.111811843665919,-0.07343870370066696,66
1764359820.4559877,321,1.5673828125,36.5630478820429,-7.1368646396852435,-0.18658309674059126,63
1764359820.5575414,328,1.6015625,36.64969103242026,-5.111811843665919,-0.09993994636323578,61
1764359820.6589942,337,1.6455078125,36.63189348002096,-2.5081725344982155,-0.11773749876252992,59
1764359820.760094,339,1.6552734375,36.864125553365376,-1.9295860213498373,0.11449457458188306,58
1764359820.8612435,329,1.6064453125,36.82412779733304,-4.82251858709173,0.07449681854954804,58
1764359820.962627,322,1.572265625,36.72691962748981,-6.847571383111055,-0.022711351293679627,59
1764359821.0661364,338,1.650390625,36.617972786467966,-2.2188792779240263,-0.1316581923155269,59
1764359821.1681201,332,1.62109375,36.723280188266635,-3.954638817369162,-0.02635079051685807,60
1764359821.2695744,336,1.640625,36.92122642175057,-2.797465791072405,0.17159544296707452,60
1764359821.3727057,338,1.650390625,36.87184058418324,-2.2188792779240263,0.12220960539974612,60
1764359821.474066,338,1.650390625,36.569031041042585,-2.2188792779240263,-0.180599937740908,60
1764359821.5753052,337,1.6455078125,36.75427349982526,-2.5081725344982155,0.004642521041766656,60
1764359821.676645,336,1.640625,36.85591385580712,-2.797465791072405,0.10628287702362371,61
1764359821.7779362,328,1.6015625,36.890649085392795,-5.111811843665919,0.1410181066093017,65
1764359821.8800316,328,1.6015625,36.916912067071536,-5.111811843665919,0.16728108828804267,68
1764359821.981743,324,1.58203125,36.87698556332999,-6.268984869962677,0.12735458454649518,72
1764359822.083141,322,1.572265625,36.847030845602376,-6.847571383111055,0.09739986681888269,75
1764359822.1851187,321,1.5673828125,36.77448884458411,-7.1368646396852435,0.02485786580061955,77
1764359822.2868545,323,1.5771484375,36.87689036294763,-6.558278126536865,0.12725938416413385,77
1764359822.3879979,326,1.591796875,36.567741452270575,-5.690398356814297,-0.18188952651291856,76
1764359822.4894855,332,1.62109375,36.82974141159122,-3.954638817369162,0.08011043280772867,76
1764359822.5913043,330,1.611328125,36.84205503654335,-4.533225330517541,0.09242405775985674,77
1764359822.6929953,338,1.650390625,36.75515246273537,-2.2188792779240263,0.005521483951874018,78
1764359822.7943184,326,1.591796875,36.5660354445696,-5.690398356814297,-0.18359553421389307,77
1764359822.8957458,332,1.62109375,36.67084517593006,-3.954638817369162,-0.07878580285343162,76
1764359822.9973073,321,1.5673828125,36.87524428489947,-7.1368646396852435,0.1256133061159801,74
1764359823.0987551,335,1.6357421875,36.91185564744437,-3.0867590476465945,0.16222466866087615,73
1764359823.2003295,329,1.6064453125,36.85380340544871,-4.82251858709173,0.10417242666521531,70
1764359823.3015013,340,1.66015625,36.83525248003683,-1.6402927647756478,0.08562150125333545,69
1764359823.4026973,332,1.62109375,36.95351597260843,-3.954638817369162,0.20388499382493563,69
1764359823.5035963,328,1.6015625,36.81547712754796,-5.111811843665919,0.06584614876446437,70
1764359823.6047664,333,1.6259765625,36.7070735495105,-3.6653455607949725,-0.04255742927299622,71
1764359823.7062342,340,1.66015625,36.57905487409993,-1.6402927647756478,-0.17057610468356188,73
1764359823.807745,329,1.6064453125,36.72296860354534,-4.82251858709173,-0.026662375238153402,75
1764359823.9088693,336,1.640625,36.94034740846757,-2.797465791072405,0.19071642968407332,73
1764359824.0108063,340,1.66015625,36.86685551310142,-1.6402927647756478,0.11722453431792701,71
1764359824.11226,325,1.5869140625,36.76531794083732,-5.9796916133884865,0.015686962053827358,70
1764359824.2136955,325,1.5869140625,36.91814831978223,-5.9796916133884865,0.16851734099873994,68
1764359824.31483,339,1.6552734375,36.67118855869261,-1.9295860213498373,-0.0784424200908802,68
1764359824.415895,327,1.5966796875,36.75476013217237,-5.401105100240108,0.005129153388878649,69
1764359824.5170834,322,1.572265625,36.68049890172931,-6.847571383111055,-0.069132077054185,70
1764359824.6185644,338,1.650390625,36.57781532131635,-2.2188792779240263,-0.17181565746714256,70
1764359824.7199156,333,1.6259765625,36.63341034588487,-3.6653455607949725,-0.11622063289862439,70
1764359824.8211145,337,1.6455078125,36.92248869771756,-2.5081725344982155,0.17285771893406832,70
1764359824.9223976,327,1.5966796875,36.90725072749749,-5.401105100240108,0.15761974871399786,70
1764359825.026051,331,1.6162109375,36.695792910159234,-4.243932073943351,-0.053838068624258995,71
1764359825.1294262,325,1.5869140625,36.56620357180579,-5.9796916133884865,-0.18342740697770665,71
1764359825.2312248,324,1.58203125,36.860099871892544,-6.268984869962677,0.11046889310905073,71
1764359825.3325522,325,1.5869140625,36.87664971153016,-5.9796916133884865,0.12701873274667008,71
1764359825.4337237,340,1.66015625,36.70585469151889,-1.6402927647756478,-0.04377628726460614,70
1764359825.5351048,326,1.591796875,36.741717179270594,-5.690398356814297,-0.007913799512898834,69
1764359825.636264,334,1.630859375,36.67227928024884,-3.3760523042207833,-0.07735169853465607,69
1764359825.7377012,323,1.5771484375,36.84683312675361,-6.558278126536865,0.0972021479701155,68
1764359825.839701,328,1.6015625,36.61493690330527,-5.111811843665919,-0.13469407547822243,69
1764359825.941563,340,1.66015625,36.946308318818396,-1.6402927647756478,0.19667734003490267,70
1764359826.0426307,327,1.5966796875,36.8292374037586,-5.401105100240108,0.07960642497510406,69
1764359826.1441398,338,1.650390625,36.577686254786606,-2.2188792779240263,-0.1719447239968872,69
1764359826.245817,338,1.650390625,36.91327102443948,-2.2188792779240263,0.16364004565598833,68
1764359826.3471773,341,1.6650390625,36.74015098966553,-1.3509995082014585,-0.009479989117963328,67
1764359826.448557,327,1.5966796875,36.648678146162325,-5.401105100240108,-0.10095283262116794,67
1764359826.549799,340,1.66015625,36.61733503384022,-1.6402927647756478,-0.13229594494327301,68
1764359826.6509306,336,1.640625,36.91806369125019,-2.797465791072405,0.16843271246669644,68
1764359826.7524135,324,1.58203125,36.87439860310452,-6.268984869962677,0.12476762432102362,69
1764359826.8541968,329,1.6064453125,36.629511435189734,-4.82251858709173,-0.1201195435937592,69
1764359826.9555626,338,1.650390625,36.94781245260382,-2.2188792779240263,0.19818147382032691,68
1764359827.05675,330,1.611328125,36.90640614062445,-4.533225330517541,0.15677516184095452,69
1764359827.158417,329,1.6064453125,36.898044534550856,-4.82251858709173,0.14841355576736248,70
1764359827.260352,328,1.6015625,36.797226926684715,-5.111811843665919,0.04759594790122179,69
1764359827.3617818,327,1.5966796875,36.802408512907554,-5.401105100240108,0.052777534124061276,69
1764359827.4629183,334,1.630859375,36.68648811592812,-3.3760523042207833,-0.06314286285537207,68
1764359827.564386,329,1.6064453125,36.697697008726635,-4.82251858709173,-0.05193397005685796,68
1764359827.665573,338,1.650390625,36.6270401773274,-2.2188792779240263,-0.12259080145609147,68
1764359827.7671032,340,1.66015625,36.95271760137887,-1.6402927647756478,0.20308662259537869,70
1764359827.8684838,333,1.6259765625,36.94231144012529,-3.6653455607949725,0.19268046134179428,72
1764359827.9697871,335,1.6357421875,36.7574180323576,-3.0867590476465945,0.007787053574105585,72
1764359828.0715172,338,1.650390625,36.698339333004256,-2.2188792779240263,-0.05129164577923717,71
1764359828.1727989,337,1.6455078125,36.601898847805224,-2.5081725344982155,-0.14773213097826954,71
1764359828.2742994,328,1.6015625,36.696113091991144,-5.111811843665919,-0.053517886792349145,71
1764359828.3762953,336,1.640625,36.7600105330799,-2.797465791072405,0.010379554296406468,71
1764359828.4787445,330,1.611328125,36.65695564321515,-4.533225330517541,-0.09267533556834451,71
1764359828.5804627,330,1.611328125,36.71488907123321,-4.533225330517541,-0.03474190755028417,70
1764359828.6818206,333,1.6259765625,36.91640159797724,-3.6653455607949725,0.16677061919374836,69
1764359828.7833126,338,1.650390625,36.772808963635846,-2.2188792779240263,0.023177984852353006,68
1764359828.8844619,336,1.640625,36.69334669480818,-2.797465791072405,-0.05628428397531593,66
1764359828.9858937,333,1.6259765625,36.9287924045545,-3.6653455607949725,0.17916142577100658,66
1764359829.0870442,320,1.5625,36.85805038235,-7.426157896259433,0.10841940356650781,65
1764359829.1889014,338,1.650390625,36.76925120433276,-2.2188792779240263,0.0196202255492679,66
1764359829.290143,329,1.6064453125,36.67866611473169,-4.82251858709173,-0.07096486405180258,67
1764359829.391218,330,1.611328125,36.879357802133256,-4.533225330517541,0.12972682334976327,69
1764359829.4924443,331,1.6162109375,36.597274755697725,-4.243932073943351,-0.1523562230857678,70
1764359829.5941484,341,1.6650390625,36.846013214886824,-1.3509995082014585,0.09638223610333085,71
1764359829.6967108,330,1.611328125,36.95715913124971,-4.533225330517541,0.20752815246621736,71
1764359829.7978358,327,1.5966796875,36.741469478859166,-5.401105100240108,-0.008161499924327131,69
1764359829.8991673,334,1.630859375,36.5627593745744,-3.3760523042207833,-0.1868716042090952,68
1764359830.000132,334,1.630859375,36.73217598932886,-3.3760523042207833,-0.01745498945463453,68
1764359830.101505,323,1.5771484375,36.81707529129631,-6.558278126536865,0.06744431251281924,68
1764359830.2042286,327,1.5966796875,36.91351437791289,-5.401105100240108,0.16388339912939642,68
1764359830.305459,326,1.591796875,36.63687666488344,-5.690398356814297,-0.11275431390005508,68
1764359830.4064555,322,1.572265625,36.807949351390725,-6.847571383111055,0.05831837260723205,68
1764359830.5080652,325,1.5869140625,36.610378566259534,-5.9796916133884865,-0.13925241252395892,68
1764359830.6097455,340,1.66015625,36.61847453827904,-1.6402927647756478,-0.13115644050445496,68
1764359830.7108111,335,1.6357421875,36.57292711405585,-3.0867590476465945,-0.1767038647276422,68
1764359830.8120885,335,1.6357421875,36.6075175430678,-3.0867590476465945,-0.14211343571569302,69
1764359830.9132288,322,1.572265625,36.576648740047354,-6.847571383111055,-0.1729822387361395,69
1764359831.0147498,336,1.640625,36.653471743230654,-2.797465791072405,-0.09615923555283956,69
1764359831.115842,323,1.5771484375,36.68618249397587,-6.558278126536865,-0.06344848480762266,70
1764359831.2170422,323,1.5771484375,36.709875265356025,-6.558278126536865,-0.039755713427467754,71
1764359831.3183346,326,1.591796875,36.83595187316165,-5.690398356814297,0.08632089437815438,71
1764359831.4199011,331,1.6162109375,36.57397825837807,-4.243932073943351,-0.17565272040542368,72
1764359831.5212717,326,1.591796875,36.772657261138725,-5.690398356814297,0.023026282355232297,74
1764359831.6225317,327,1.5966796875,36.91935034242274,-5.401105100240108,0.16971936363924556,75
1764359831.724438,335,1.6357421875,36.94671316678714,-3.0867590476465945,0.19708218800364818,76
1764359831.8315604,333,1.6259765625,36.57037932154657,-3.6653455607949725,-0.17925165723692515,76
1764359831.9329515,330,1.611328125,36.61896607021008,-4.533225330517541,-0.13066490857341506,75
1764359832.0340035,340,1.66015625,36.83387041391275,-1.6402927647756478,0.08423943512925547,75
1764359832.1350884,322,1.572265625,36.61511476557226,-6.847571383111055,-0.13451621321123497,72
1764359832.2365298,337,1.6455078125,36.88024705843363,-2.5081725344982155,0.13061607965013877,71
1764359832.3383799,338,1.650390625,36.68157525820442,-2.2188792779240263,-0.06805572057907483,71
1764359832.4406016,339,1.6552734375,36.935657505637614,-1.9295860213498373,0.18602652685412124,70
1764359832.5420969,332,1.62109375,36.67036812724703,-3.954638817369162,-0.07926285153646262,69
1764359832.6433444,323,1.5771484375,36.92171169417952,-6.558278126536865,0.17208071539602798,69
1764359832.7446272,337,1.6455078125,36.66782829477758,-2.5081725344982155,-0.08180268400591473,68
1764359832.8462658,328,1.6015625,36.61917457966914,-5.111811843665919,-0.13045639911435103,68
1764359832.9476256,328,1.6015625,36.88444122732105,-5.111811843665919,0.13481024853755486,68
1764359833.0486035,334,1.630859375,36.941083489012904,-3.3760523042207833,0.19145251022941068,69
1764359833.1499326,339,1.6552734375,36.890173358517174,-1.9295860213498373,0.1405423797336809,70
1764359833.2514024,339,1.6552734375,36.68010287142717,-1.9295860213498373,-0.06952810735632653,70
1764359833.3529994,334,1.630859375,36.688245524225735,-3.3760523042207833,-0.06138545455775812,69
1764359833.454547,325,1.5869140625,36.69223056428312,-5.9796916133884865,-0.057400414500371255,68
1764359833.556559,331,1.6162109375,36.75953102272288,-4.243932073943351,0.009900043939389036,67
1764359833.6579747,326,1.591796875,36.675287136155724,-5.690398356814297,-0.07434384262776916,65
1764359833.7591412,331,1.6162109375,36.70632408126402,-4.243932073943351,-0.04330689751947148,64
1764359833.8603055,325,1.5869140625,36.71564845338001,-5.9796916133884865,-0.03398252540348068,65
1764359833.9613478,334,1.630859375,36.574548654937146,-3.3760523042207833,-0.1750823238463468,65
1764359834.0626714,332,1.62109375,36.78883207614802,-3.954638817369162,0.039201097364525594,65
1764359834.163778,327,1.5966796875,36.78340043772869,-5.401105100240108,0.03376945894519423,64
1764359834.2648797,323,1.5771484375,36.583761684186086,-6.558278126536865,-0.16586929459740674,63
1764359834.3664587,331,1.6162109375,36.634839560042394,-4.243932073943351,-0.114791418741099,63
1764359834.4678538,332,1.62109375,36.75041624955591,-3.954638817369162,0.0007852707724183006,62
1764359834.5693493,322,1.572265625,36.932545028702066,-6.847571383111055,0.18291404991857263,63
1764359834.6708941,328,1.6015625,36.711065040056376,-5.111811843665919,-0.038565938727117555,64
1764359834.7726414,338,1.650390625,36.70716947994578,-2.2188792779240263,-0.04246149883771011,64
1764359834.8740256,323,1.5771484375,36.693242406685044,-6.558278126536865,-0.05638857209844872,63
1764359834.975599,327,1.5966796875,36.79012846331376,-5.401105100240108,0.040497484530270356,63
1764359835.0766923,334,1.630859375,36.66044875588862,-3.3760523042207833,-0.08918222289486977,64
1764359835.177989,330,1.611328125,36.89876839426293,-4.533225330517541,0.14913741547943715,64
1764359835.2792358,340,1.66015625,36.64081231945095,-1.6402927647756478,-0.10881865933254176,62
1764359835.380106,328,1.6015625,36.702918025067646,-5.111811843665919,-0.04671295371584705,62
1764359835.481621,330,1.611328125,36.75946323241293,-4.533225330517541,0.009832253629433296,59
1764359835.5830667,328,1.6015625,36.86884325894049,-5.111811843665919,0.1192122801569937,57
1764359835.6846805,333,1.6259765625,36.93642900974486,-3.6653455607949725,0.18679803096136993,55
1764359835.7860878,326,1.591796875,36.76071904305495,-5.690398356814297,0.011088064271454812,54
1764359835.8879147,325,1.5869140625,36.61536333861002,-5.9796916133884865,-0.13426764017347637,54
1764359835.9899251,337,1.6455078125,36.948554137843914,-2.5081725344982155,0.19892315906042057,54
1764359836.0916104,322,1.572265625,36.84377601751671,-6.847571383111055,0.09414503873321678,56
1764359836.1927066,335,1.6357421875,36.760044228815836,-3.0867590476465945,0.010413250032343058,56
1764359836.2939885,336,1.640625,36.71305928045765,-2.797465791072405,-0.03657169832584373,58
1764359836.395587,320,1.5625,36.83494594532275,-7.426157896259433,0.08531496653925785,59
1764359836.4974854,328,1.6015625,36.76272877678231,-5.111811843665919,0.013097797998817384,59
1764359836.5984719,334,1.630859375,36.724790722542316,-3.3760523042207833,-0.024840256241176917,59
1764359836.7000694,331,1.6162109375,36.94449235356387,-4.243932073943351,0.19486137478037335,60
1764359836.8017788,336,1.640625,36.570801099124424,-2.797465791072405,-0.1788298796590695,60
1764359836.9028656,328,1.6015625,36.62725112403559,-5.111811843665919,-0.12237985474790491,61
1764359837.0046003,340,1.66015625,36.91763542103685,-1.6402927647756478,0.16800444225335553,61
1764359837.1060557,330,1.611328125,36.68233886354388,-4.533225330517541,-0.06729211523960998,61
1764359837.2073467,329,1.6064453125,36.9424540943844,-4.82251858709173,0.19282311560090903,60
1764359837.30896,339,1.6552734375,36.94592921507278,-1.9295860213498373,0.19629823628928733,60
1764359837.410546,337,1.6455078125,36.72633805983069,-2.5081725344982155,-0.023292918952805053,59
1764359837.5117154,328,1.6015625,36.88195031548076,-5.111811843665919,0.1323193366972646,59
1764359837.6131246,327,1.5966796875,36.8447833589172,-5.401105100240108,0.09515238013370464,59
1764359837.7145336,322,1.572265625,36.74326139732929,-6.847571383111055,-0.006369581454201523,59
1764359837.8157985,322,1.572265625,36.64817740950239,-6.847571383111055,-0.10145356928110516,59
1764359837.9172618,327,1.5966796875,36.6842944848603,-5.401105100240108,-0.06533649392319063,60
1764359838.0183277,340,1.66015625,36.87110851290164,-1.6402927647756478,0.12147753411814932,60
1764359838.1195545,327,1.5966796875,36.896664926321506,-5.401105100240108,0.1470339475380129,60
1764359838.2212343,339,1.6552734375,36.66916326215942,-1.9295860213498373,-0.08046771662407082,60
1764359838.3234785,321,1.5673828125,36.85728464657445,-7.1368646396852435,0.10765366779095586,60
1764359838.4249377,326,1.591796875,36.83891072095517,-5.690398356814297,0.08927974217167645,59
1764359838.5265296,340,1.66015625,36.672035635220034,-1.6402927647756478,-0.0775953435634591,59
1764359838.6278048,336,1.640625,36.939273428921375,-2.797465791072405,0.18964245013788172,58
1764359838.734275,333,1.6259765625,36.85844021239103,-3.6653455607949725,0.10880923360753769,58
1764359838.835803,331,1.6162109375,36.656700837153664,-4.243932073943351,-0.09293014162982871,57
1764359838.937204,322,1.572265625,36.75115006555782,-6.847571383111055,0.0015190867743299918,57
1764359839.0390003,334,1.630859375,36.81855264113918,-3.3760523042207833,0.06892166235568453,57
1764359839.1406229,321,1.5673828125,36.91311855362308,-7.1368646396852435,0.16348757483958565,56
1764359839.2417378,339,1.6552734375,36.83480021512898,-1.9295860213498373,0.0851692363454859,56
1764359839.3432393,332,1.62109375,36.841829194114766,-3.954638817369162,0.09219821533127259,56
1764359839.4449909,333,1.6259765625,36.694292535759445,-3.6653455607949725,-0.055338443024048445,56
1764359839.546208,323,1.5771484375,36.709221808144335,-6.558278126536865,-0.040409170639158276,55
1764359839.6471174,339,1.6552734375,36.81629243446523,-1.9295860213498373,0.06666145568173931,56
1764359839.7484987,330,1.611328125,36.81156361068149,-4.533225330517541,0.061932631897995805,57
1764359839.8499367,321,1.5673828125,36.93451028091094,-7.1368646396852435,0.18487930212744885,56
1764359839.9521306,333,1.6259765625,36.60614521400385,-3.6653455607949725,-0.1434857647796406,56
1764359840.0534954,322,1.572265625,36.77630756643409,-6.847571383111055,0.02667658765059855,55
1764359840.1553967,332,1.62109375,36.81761669952689,-3.954638817369162,0.06798572074339404,54
1764359840.2566254,322,1.572265625,36.76933927525298,-6.847571383111055,0.019708296469488573,54
1764359840.3582013,337,1.6455078125,36.76988389649845,-2.5081725344982155,0.020252917714955743,53
1764359840.4595726,338,1.650390625,36.82860785645762,-2.2188792779240263,0.07897687767412975,53
1764359840.5610893,336,1.640625,36.92970705971867,-2.797465791072405,0.18007608093518002,55
1764359840.6626306,339,1.6552734375,36.56263955353013,-1.9295860213498373,-0.18699142525336043,56
1764359840.7637029,325,1.5869140625,36.89073594182325,-5.9796916133884865,0.1411049630397585,58
1764359840.8657517,322,1.572265625,36.89719296337099,-6.847571383111055,0.14756198458749736,60
1764359840.96777,339,1.6552734375,36.672413805162556,-1.9295860213498373,-0.07721717362093727,61
1764359841.0690005,341,1.6650390625,36.79654706996256,-1.3509995082014585,0.04691609117906381,60
1764359841.1701453,324,1.58203125,36.7889374760662,-6.268984869962677,0.039306497282709074,61
1764359841.2716827,327,1.5966796875,36.62688997011045,-5.401105100240108,-0.12274100867304583,60
1764359841.3731189,325,1.5869140625,36.64733203826916,-5.9796916133884865,-0.10229894051433064,60
1764359841.474481,321,1.5673828125,36.719296910390604,-7.1368646396852435,-0.030334068392889435,59
1764359841.5759788,332,1.62109375,36.803632960278485,-3.954638817369162,0.05400198149499147,60
1764359841.6792572,328,1.6015625,36.91730874293233,-5.111811843665919,0.16767776414883429,60
1764359841.7807474,333,1.6259765625,36.780265539910744,-3.6653455607949725,0.030634561127250493,60
1764359841.8820627,322,1.572265625,36.743560752820684,-6.847571383111055,-0.006070225962808706,60
1764359841.98357,340,1.66015625,36.60106052949004,-1.6402927647756478,-0.14857044929345165,60
1764359842.0847933,338,1.650390625,36.800442985788216,-2.2188792779240263,0.05081200700472266,61
1764359842.186329,333,1.6259765625,36.5902782861319,-3.6653455607949725,-0.1593526926515949,61
1764359842.2875352,332,1.62109375,36.88721237916543,-3.954638817369162,0.13758140038194,62
1764359842.3889134,326,1.591796875,36.61803541610379,-5.690398356814297,-0.1315955626797063,62
1764359842.4903286,334,1.630859375,36.88130759977472,-3.3760523042207833,0.1316766209912288,63
1764359842.5916884,332,1.62109375,36.95176439434093,-3.954638817369162,0.2021334155574337,62
1764359842.6930568,324,1.58203125,36.875538910539646,-6.268984869962677,0.1259079317561529,62
1764359842.7945375,328,1.6015625,36.901003980811666,-5.111811843665919,0.15137300202817272,63
1764359842.895797,337,1.6455078125,36.69964894853811,-2.5081725344982155,-0.04998203024538128,64
1764359842.9970737,323,1.5771484375,36.564406086355746,-6.558278126536865,-0.18522489242774753,64
1764359843.0983393,331,1.6162109375,36.65350776624547,-4.243932073943351,-0.09612321253802492,64
1764359843.1994221,333,1.6259765625,36.57857195511609,-3.6653455607949725,-0.17105902366740366,64
1764359843.3008244,329,1.6064453125,36.68260280350595,-4.82251858709173,-0.06702817527754235,63
1764359843.4022536,332,1.62109375,36.60601606667724,-3.954638817369162,-0.14361491210625132,61
1764359843.5035934,325,1.5869140625,36.66155819899308,-5.9796916133884865,-0.08807277979041572,61
1764359843.6048632,328,1.6015625,36.93990787433779,-5.111811843665919,0.19027689555429816,61
1764359843.7064774,340,1.66015625,36.64377332450684,-1.6402927647756478,-0.1058576542766545,61
1764359843.8076952,327,1.5966796875,36.80717027076421,-5.401105100240108,0.05753929198071717,61
1764359843.9089644,338,1.650390625,36.64846835695508,-2.2188792779240263,-0.10116262182841496,61
1764359844.0102913,339,1.6552734375,36.74808885652671,-1.9295860213498373,-0.0015421222567866266,62
1764359844.111662,335,1.6357421875,36.829839390306645,-3.0867590476465945,0.08020841152315228,63
1764359844.2133412,329,1.6064453125,36.9385153308883,-4.82251858709173,0.18888435210480736,64
1764359844.3144743,336,1.640625,36.80067891558644,-2.797465791072405,0.05104793680294506,64
1764359844.4158342,331,1.6162109375,36.71389107561024,-4.243932073943351,-0.035739903173251264,66
1764359844.5174685,340,1.66015625,36.91207587044989,-1.6402927647756478,0.16244489166639653,68
1764359844.6187131,328,1.6015625,36.94475044611578,-5.111811843665919,0.19511946733229024,70
1764359844.7197468,340,1.66015625,36.66674565522394,-1.6402927647756478,-0.0828853235595517,71
1764359844.820737,332,1.62109375,36.65399058713126,-3.954638817369162,-0.09564039165223193,71
1764359844.9224646,334,1.630859375,36.70356792211999,-3.3760523042207833,-0.046063056663506075,69
1764359845.0240948,324,1.58203125,36.92933299795885,-6.268984869962677,0.17970201917535888,67
1764359845.1257503,329,1.6064453125,36.921886684821565,-4.82251858709173,0.17225570603807228,66
1764359845.2271905,335,1.6357421875,36.887971695486094,-3.0867590476465945,0.13834071670260073,65
1764359845.3288105,336,1.640625,36.588878007173506,-2.797465791072405,-0.16075297160998758,64
1764359845.42983,336,1.640625,36.847249001004194,-2.797465791072405,0.0976180222207006,64
1764359845.5311322,336,1.640625,36.85017798417857,-2.797465791072405,0.10054700539507877,64
1764359845.6327753,334,1.630859375,36.80477648239539,-3.3760523042207833,0.05514550361189663,63
1764359845.7340565,330,1.611328125,36.70251947067556,-4.533225330517541,-0.047111508107931854,63
1764359845.8354712,324,1.58203125,36.853605487801474,-6.268984869962677,0.10397450901798067,63
1764359845.9367654,339,1.6552734375,36.75535418629598,-1.9295860213498373,0.0057232075124886705,64
1764359846.0380275,325,1.5869140625,36.75605078597414,-5.9796916133884865,0.006419807190646054,64
1764359846.1396694,329,1.6064453125,36.810207695071156,-4.82251858709173,0.060576716287663146,63
1764359846.2407284,332,1.62109375,36.790040150778204,-3.954638817369162,0.04040917199471039,63
1764359846.3420646,328,1.6015625,36.843157914306836,-5.111811843665919,0.09352693552334301,62
1764359846.4431484,341,1.6650390625,36.84825070004604,-1.3509995082014585,0.09861972126254415,62
1764359846.5444927,327,1.5966796875,36.74304207562338,-5.401105100240108,-0.006588903160114512,62
1764359846.646021,337,1.6455078125,36.94394892016559,-2.5081725344982155,0.19431794138209568,62
1764359846.7475617,322,1.572265625,36.8888194167497,-6.847571383111055,0.1391884379662045,63
1764359846.8544564,321,1.5673828125,36.56143915544713,-7.1368646396852435,-0.18819182333636064,63
1764359846.956265,339,1.6552734375,36.92496756148615,-1.9295860213498373,0.17533658270265562,64
1764359847.0572457,335,1.6357421875,36.923069029053075,-3.0867590476465945,0.17343805026958137,64
1764359847.1585438,335,1.6357421875,36.898487753052834,-3.0867590476465945,0.14885677426934052,65
1764359847.2598784,325,1.5869140625,36.81331227540621,-5.9796916133884865,0.06368129662271826,65
1764359847.3609912,328,1.6015625,36.789562368568845,-5.111811843665919,0.03993138978535171,66
1764359847.4620395,322,1.572265625,36.56706878374666,-6.847571383111055,-0.18256219503683013,67
1764359847.5632627,321,1.5673828125,36.83570436224547,-7.1368646396852435,0.08607338346197935,68
1764359847.6655653,326,1.591796875,36.93780376436794,-5.690398356814297,0.18817278558444883,68
1764359847.7675426,332,1.62109375,36.693481801669485,-3.954638817369162,-0.05614917711400835,69
1764359847.8689196,321,1.5673828125,36.83509996307461,-7.1368646396852435,0.08546898429111849,69
1764359847.9701173,340,1.66015625,36.860909557989395,-1.6402927647756478,0.11127857920590145,69
1764359848.0709796,337,1.6455078125,36.84214222429627,-2.5081725344982155,0.09251124551277456,68
1764359848.1719127,329,1.6064453125,36.59627815514848,-4.82251858709173,-0.1533528236350108,67
1764359848.2729845,334,1.630859375,36.848726374845704,-3.3760523042207833,0.09909539606221074,66
1764359848.3742075,337,1.6455078125,36.630641849618044,-2.5081725344982155,-0.11898912916544901,65
1764359848.4751537,336,1.640625,36.56093494229013,-2.797465791072405,-0.18869603649336142,64
1764359848.5762923,320,1.5625,36.94387578040584,-7.426157896259433,0.19424480162234659,64
1764359848.6780188,336,1.640625,36.87522947458545,-2.797465791072405,0.1255984958019596,63
1764359848.7794292,336,1.640625,36.67897422369688,-2.797465791072405,-0.07065675508660973,63
1764359848.8805904,331,1.6162109375,36.63537625532342,-4.243932073943351,-0.11425472346007126,63
1764359848.9820323,335,1.6357421875,36.74631940110313,-3.0867590476465945,-0.003311577680364053,63
1764359849.0833774,338,1.650390625,36.622125228470246,-2.2188792779240263,-0.1275057503132473,63
1764359849.1849325,337,1.6455078125,36.851689764281716,-2.5081725344982155,0.10205878549822245,63
1764359849.2863812,338,1.650390625,36.78732814189398,-2.2188792779240263,0.03769716311048654,64
1764359849.3874817,327,1.5966796875,36.95666531672087,-5.401105100240108,0.20703433793737958,65
1764359849.488946,333,1.6259765625,36.60261844479723,-3.6653455607949725,-0.14701253398626335,66
1764359849.5901866,329,1.6064453125,36.59784812475306,-4.82251858709173,-0.15178285403043645,67
1764359849.6911094,325,1.5869140625,36.79313656316873,-5.9796916133884865,0.04350558438523677,68
1764359849.792731,323,1.5771484375,36.70632873724155,-6.558278126536865,-0.0433022415419444,69
1764359849.8938327,321,1.5673828125,36.593482972132655,-7.1368646396852435,-0.15614800665083806,69
1764359849.9949589,322,1.572265625,36.94600210628435,-6.847571383111055,0.1963711275008535,69
1764359850.0966218,323,1.5771484375,36.89266675555073,-6.558278126536865,0.14303577676723478,68
1764359850.1981604,341,1.6650390625,36.90972949326398,-1.3509995082014585,0.16009851448048806,68
1764359850.2992191,329,1.6064453125,36.90612199163831,-4.82251858709173,0.15649101285481493,68
1764359850.4003356,325,1.5869140625,36.7701580614426,-5.9796916133884865,0.02052708265910752,68
1764359850.5018787,334,1.630859375,36.88651778008706,-3.3760523042207833,0.136886801303568,68
1764359850.6032379,328,1.6015625,36.71137329310798,-5.111811843665919,-0.0382576856755108,67
1764359850.704362,323,1.5771484375,36.79782509037959,-6.558278126536865,0.048194111596096434,67
1764359850.8056583,337,1.6455078125,36.82709951013494,-2.5081725344982155,0.0774685313514496,66
1764359850.907239,330,1.611328125,36.94705375695688,-4.533225330517541,0.19742277817339016,67
1764359851.008522,327,1.5966796875,36.84142352315906,-5.401105100240108,0.09179254437556494,67
1764359851.10961,321,1.5673828125,36.835701739229,-7.1368646396852435,0.08607076044550865,67
1764359851.2110343,335,1.6357421875,36.588481554921685,-3.0867590476465945,-0.16114942386180786,68
1764359851.313137,327,1.5966796875,36.82202911898042,-5.401105100240108,0.07239814019692403,68
1764359851.414374,330,1.611328125,36.91017868550933,-4.533225330517541,0.1605477067258363,68
1764359851.5153759,336,1.640625,36.58966125860855,-2.797465791072405,-0.15996972017494215,68
1764359851.6168199,336,1.640625,36.76403097903105,-2.797465791072405,0.014400000247555056,68
1764359851.7182448,322,1.572265625,36.66688955410534,-6.847571383111055,-0.08274142467815437,69
1764359851.8200011,326,1.591796875,36.88603449631996,-5.690398356814297,0.13640351753646485,69
1764359851.9214218,331,1.6162109375,36.845733834975455,-4.243932073943351,0.0961028561919619,69
1764359852.0233784,333,1.6259765625,36.673531291360526,-3.6653455607949725,-0.07609968742296758,68
1764359852.1245272,326,1.591796875,36.57834609579923,-5.690398356814297,-0.17128488298425992,67
1764359852.2261305,331,1.6162109375,36.726297921137736,-4.243932073943351,-0.02333305764575755,66
1764359852.327516,330,1.611328125,36.893825881975545,-4.533225330517541,0.14419490319205153,64
1764359852.4287121,336,1.640625,36.815853104818416,-2.797465791072405,0.06622212603492272,63
1764359852.5302494,340,1.66015625,36.78638782777755,-1.6402927647756478,0.03675684899405951,63
1764359852.6318996,329,1.6064453125,36.750816703435206,-4.82251858709173,0.0011857246517124054,63
1764359852.7333124,331,1.6162109375,36.84989250863502,-4.243932073943351,0.10026152985152947,63
1764359852.8352113,325,1.5869140625,36.56715720106922,-5.9796916133884865,-0.18247377771427153,63
1764359852.93699,327,1.5966796875,36.66018234711159,-5.401105100240108,-0.08944863167189965,64
1764359853.0382252,329,1.6064453125,36.73580520705576,-4.82251858709173,-0.01382577172773125,65
1764359853.1394608,324,1.58203125,36.811545228561,-6.268984869962677,0.0619142497775087,66
1764359853.2414973,330,1.611328125,36.92144140408352,-4.533225330517541,0.17181042530002344,67
1764359853.3427196,338,1.650390625,36.66208234982873,-2.2188792779240263,-0.08754862895476379,68
1764359853.4448864,337,1.6455078125,36.84942500572619,-2.5081725344982155,0.09979402694269623,68
1764359853.546841,329,1.6064453125,36.861225701990854,-4.82251858709173,0.11159472320736086,69
1764359853.648348,337,1.6455078125,36.74717875662457,-2.5081725344982155,-0.002452222158922268,69
1764359853.7500744,339,1.6552734375,36.8095516230386,-1.9295860213498373,0.0599206442551079,69
1764359853.851331,324,1.58203125,36.78677867724478,-6.268984869962677,0.037147698461289735,69
1764359853.9522007,332,1.62109375,36.613229244590684,-3.954638817369162,-0.136401734192809,69
1764359854.0530484,340,1.66015625,36.753422784743634,-1.6402927647756478,0.003791805960140948,67
1764359854.1542346,335,1.6357421875,36.57532221320855,-3.0867590476465945,-0.17430876557494202,66
1764359854.2558503,336,1.640625,36.815132669622336,-2.797465791072405,0.06550169083884327,65
1764359854.3573656,338,1.650390625,36.89037953740359,-2.2188792779240263,0.14074855862009628,65
1764359854.4585934,324,1.58203125,36.91345593718317,-6.268984869962677,0.1638249583996796,66
1764359854.5604568,331,1.6162109375,36.80835968486601,-4.243932073943351,0.05872870608251901,67
1764359854.6621077,323,1.5771484375,36.954350426119916,-6.558278126536865,0.2047194473364229,67
1764359854.7635963,338,1.650390625,36.80622609579847,-2.2188792779240263,0.05659511701497877,68
1764359854.8650868,335,1.6357421875,36.71675667325149,-3.0867590476465945,-0.032874305532004655,68
1764359854.9671931,329,1.6064453125,36.67530296069907,-4.82251858709173,-0.07432801808442235,68
1764359855.068384,323,1.5771484375,36.72442727923707,-6.558278126536865,-0.025203699546423763,70
1764359855.1715846,325,1.5869140625,36.736531165993135,-5.9796916133884865,-0.0130998127903581,71
1764359855.273667,329,1.6064453125,36.6654200084326,-4.82251858709173,-0.08421097035089531,72
1764359855.3755023,322,1.572265625,36.921949209387286,-6.847571383111055,0.1723182306037927,72
1764359855.4771242,321,1.5673828125,36.86969230837099,-7.1368646396852435,0.12006132958750015,72
1764359855.5786717,327,1.5966796875,36.659273473079324,-5.401105100240108,-0.09035750570416923,72
1764359855.6799104,321,1.5673828125,36.759945624555236,-7.1368646396852435,0.010314645771742903,73
1764359855.7809136,338,1.650390625,36.65650132187888,-2.2188792779240263,-0.09312965690461539,73
1764359855.8825192,333,1.6259765625,36.62414179815081,-3.6653455607949725,-0.12548918063268388,72
1764359855.984628,321,1.5673828125,36.599143132017694,-7.1368646396852435,-0.15048784676579885,72
1764359856.0862794,327,1.5966796875,36.81213636397147,-5.401105100240108,0.06250538518797555,72
1764359856.187328,323,1.5771484375,36.747505934941486,-6.558278126536865,-0.0021250438420068463,72
1764359856.28847,339,1.6552734375,36.761651259821555,-1.9295860213498373,0.012020281038061853,71
1764359856.3895829,332,1.62109375,36.606259601490365,-3.954638817369162,-0.14337137729312843,70
1764359856.490884,327,1.5966796875,36.591820628665246,-5.401105100240108,-0.15781035011824684,70
1764359856.5925457,338,1.650390625,36.838333073758044,-2.2188792779240263,0.0887020949745505,70
1764359856.6946025,338,1.650390625,36.796123399064456,-2.2188792779240263,0.046492420280962676,69
1764359856.79644,327,1.5966796875,36.78766284365598,-5.401105100240108,0.038031864872486665,68
1764359856.8978522,340,1.66015625,36.95240838691717,-1.6402927647756478,0.20277740813367728,67
1764359856.9990313,327,1.5966796875,36.675807117398215,-5.401105100240108,-0.07382386138527863,67
1764359857.1001463,334,1.630859375,36.75360506782197,-3.3760523042207833,0.003974089038479178,66
1764359857.2020817,325,1.5869140625,36.82022338204317,-5.9796916133884865,0.07059240325967409,66
1764359857.3036823,333,1.6259765625,36.91725386641402,-3.6653455607949725,0.1676228876305288,67
1764359857.4050233,327,1.5966796875,36.79951302498509,-5.401105100240108,0.04988204620159564,68
1764359857.5064702,330,1.611328125,36.6908150020232,-4.533225330517541,-0.058815976760293154,68
1764359857.6085644,338,1.650390625,36.74056360064193,-2.2188792779240263,-0.009067378141565996,68
1764359857.7104535,323,1.5771484375,36.892910969412625,-6.558278126536865,0.14327999062913221,68
1764359857.8119133,335,1.6357421875,36.753902535302444,-3.0867590476465945,0.0042715565189510585,68
1764359857.9130266,338,1.650390625,36.83077225133863,-2.2188792779240263,0.08114127255513637,68
1764359858.0147069,330,1.611328125,36.58399059267717,-4.533225330517541,-0.16564038610632537,69
1764359858.1160831,334,1.630859375,36.91496538160865,-3.3760523042207833,0.16533440282515954,69
1764359858.2175612,332,1.62109375,36.917280093146076,-3.954638817369162,0.16764911436258245,69
1764359858.3187168,338,1.650390625,36.732693707368924,-2.2188792779240263,-0.016937271414569466,70
1764359858.4201307,328,1.6015625,36.92290028840494,-5.111811843665919,0.17326930962144615,70
1764359858.5213363,336,1.640625,36.67427950751743,-2.797465791072405,-0.07535147126606034,71
1764359858.6225812,336,1.640625,36.823912115386925,-2.797465791072405,0.07428113660343172,71
1764359858.7241411,325,1.5869140625,36.58176544950537,-5.9796916133884865,-0.16786552927812437,72
1764359858.8259761,325,1.5869140625,36.725967964750055,-5.9796916133884865,-0.0236630140334384,72
1764359858.9273238,327,1.5966796875,36.598189419670824,-5.401105100240108,-0.1514415591126692,72
1764359859.0285785,339,1.6552734375,36.580755173904066,-1.9295860213498373,-0.168875804879427,72
1764359859.1296408,331,1.6162109375,36.86433447402009,-4.243932073943351,0.11470349523659706,73
1764359859.2310183,339,1.6552734375,36.56320064090463,-1.9295860213498373,-0.18643033787886054,73
1764359859.3323348,335,1.6357421875,36.90337646570011,-3.0867590476465945,0.1537454869166197,74
1764359859.43376,321,1.5673828125,36.616814423688915,-7.1368646396852435,-0.13281655509457835,74
1764359859.535829,336,1.640625,36.862280899721675,-2.797465791072405,0.11264992093818194,74
1764359859.6372325,322,1.572265625,36.62334147720787,-6.847571383111055,-0.12628950157562002,74
1764359859.73877,325,1.5869140625,36.57079288057751,-5.9796916133884865,-0.17883809820598628,74
1764359859.8405824,334,1.630859375,36.87550085420165,-3.3760523042207833,0.12586987541815375,74
1764359859.942127,322,1.572265625,36.94805236220843,-6.847571383111055,0.19842138342493598,74
1764359860.0435557,340,1.66015625,36.57445512196837,-1.6402927647756478,-0.17517585681512315,74
1764359860.1446564,320,1.5625,36.65728222205598,-7.426157896259433,-0.0923487567275103,74
1764359860.246051,324,1.58203125,36.703125899751555,-6.268984869962677,-0.046505079031938124,73
1764359860.3473175,327,1.5966796875,36.85104071874156,-5.401105100240108,0.1014097399580649,71
1764359860.4487083,327,1.5966796875,36.68251294135761,-5.401105100240108,-0.06711803742588529,69
1764359860.5502954,327,1.5966796875,36.84519288049718,-5.401105100240108,0.09556190171368684,68
1764359860.6518538,339,1.6552734375,36.85794764496899,-1.9295860213498373,0.10831666618549463,68
1764359860.7530386,329,1.6064453125,36.88518783766905,-4.82251858709173,0.13555685888555757,70
1764359860.854147,339,1.6552734375,36.78302243227331,-1.9295860213498373,0.03339145348981987,71
1764359860.9559796,333,1.6259765625,36.60874836346255,-3.6653455607949725,-0.14088261532094037,72
1764359861.057712,339,1.6552734375,36.892802356961184,-1.9295860213498373,0.14317137817769066,72
1764359861.159738,337,1.6455078125,36.85431554323178,-2.5081725344982155,0.10468456444828433,72
1764359861.2612038,325,1.5869140625,36.70382738067583,-5.9796916133884865,-0.04580359810766055,71
1764359861.3625472,338,1.650390625,36.83519137448987,-2.2188792779240263,0.08556039570637353,71
1764359861.463983,329,1.6064453125,36.831486611292945,-4.82251858709173,0.08185563250945194,71
1764359861.5651276,333,1.6259765625,36.65227522026423,-3.6653455607949725,-0.0973557585192637,71
1764359861.6665773,330,1.611328125,36.5636672947941,-4.533225330517541,-0.18596368398939234,71
1764359861.768228,321,1.5673828125,36.68016636475974,-7.1368646396852435,-0.06946461402375093,71
1764359861.8697686,335,1.6357421875,36.91079911108773,-3.0867590476465945,0.16116813230423332,71
1764359861.9712405,325,1.5869140625,36.69370906356782,-5.9796916133884865,-0.055921915215670026,72
1764359862.0732214,333,1.6259765625,36.68584841410215,-3.6653455607949725,-0.06378256468133969,73
1764359862.1750715,339,1.6552734375,36.65654714847164,-1.9295860213498373,-0.09308383031185485,74
1764359862.2766109,322,1.572265625,36.56558105966356,-6.847571383111055,-0.18404991911993562,73
1764359862.3779995,330,1.611328125,36.89235225765592,-4.533225330517541,0.14272127887242902,73
1764359862.4795618,325,1.5869140625,36.651688507438394,-5.9796916133884865,-0.09794247134509959,72
1764359862.5807335,322,1.572265625,36.56451993730595,-6.847571383111055,-0.18511104147754054,70
1764359862.6818786,325,1.5869140625,36.70122827482708,-5.9796916133884865,-0.04840270395641255,69
1764359862.7842815,323,1.5771484375,36.82486155210118,-6.558278126536865,0.07523057331768968,69
1764359862.8856494,333,1.6259765625,36.91448059476069,-3.6653455607949725,0.1648496159771966,69
1764359862.9873307,321,1.5673828125,36.632206956160594,-7.1368646396852435,-0.11742402262289886,68
1764359863.0886078,333,1.6259765625,36.78414267709753,-3.6653455607949725,0.034511698314034334,68
1764359863.18993,332,1.62109375,36.63424505030102,-3.954638817369162,-0.11538592848247475,68
1764359863.2912822,338,1.650390625,36.677900070071836,-2.2188792779240263,-0.07173090871165755,68
1764359863.3926806,339,1.6552734375,36.91212718231163,-1.9295860213498373,0.16249620352813565,68
1764359863.4942245,324,1.58203125,36.64726706362755,-6.268984869962677,-0.10236391515594079,67
1764359863.5952222,336,1.640625,36.924540187535115,-2.797465791072405,0.17490920875162175,67
1764359863.6968005,335,1.6357421875,36.62576420838661,-3.0867590476465945,-0.1238667703968801,67
1764359863.797878,337,1.6455078125,36.82031389895031,-2.5081725344982155,0.0706829201668171,68
1764359863.8989766,325,1.5869140625,36.75952947814532,-5.9796916133884865,0.00989849936182452,69
1764359864.000467,337,1.6455078125,36.882745239844525,-2.5081725344982155,0.1331142610610314,70
1764359864.101673,331,1.6162109375,36.85461315680735,-4.243932073943351,0.10498217802386023,70
1764359864.2030168,325,1.5869140625,36.56147909720987,-5.9796916133884865,-0.18815188157362428,69
1764359864.3048813,326,1.591796875,36.674209479975985,-5.690398356814297,-0.0754214988075077,68
1764359864.4067757,336,1.640625,36.89307679927595,-2.797465791072405,0.14344582049245957,68
1764359864.508284,333,1.6259765625,36.69761492039452,-3.6653455607949725,-0.05201605838897194,67
1764359864.6097615,330,1.611328125,36.72212076539218,-4.533225330517541,-0.02751021339131654,67
1764359864.7110784,328,1.6015625,36.85756409200177,-5.111811843665919,0.10793311321828014,67
1764359864.8124106,331,1.6162109375,36.85197796993984,-4.243932073943351,0.10234699115634527,68
1764359864.9139767,327,1.5966796875,36.758186635001714,-5.401105100240108,0.00855565621822052,67
1764359865.015515,325,1.5869140625,36.92150079678774,-5.9796916133884865,0.1718698180042466,69
1764359865.117095,336,1.640625,36.799919047756745,-2.797465791072405,0.05028806897325211,70
1764359865.2186453,333,1.6259765625,36.93032337325271,-3.6653455607949725,0.1806923944692187,70
1764359865.320539,321,1.5673828125,36.740361849870645,-7.1368646396852435,-0.009269128912848146,70
1764359865.4219723,330,1.611328125,36.67987865129492,-4.533225330517541,-0.06975232748857252,69
1764359865.5232563,339,1.6552734375,36.69465268230048,-1.9295860213498373,-0.05497829648301433,69
1764359865.6245053,340,1.66015625,36.688103463893924,-1.6402927647756478,-0.06152751488956909,68
1764359865.7262673,324,1.58203125,36.66503471742123,-6.268984869962677,-0.08459626136226461,68
1764359865.8276358,338,1.650390625,36.81094840205968,-2.2188792779240263,0.06131742327618639,67
1764359865.9286988,323,1.5771484375,36.876621971669934,-6.558278126536865,0.12699099288644078,66
1764359866.0300455,332,1.62109375,36.7278061770954,-3.954638817369162,-0.021824801688090645,65
1764359866.1312685,329,1.6064453125,36.93069412463159,-4.82251858709173,0.1810631458480998,65
1764359866.232879,321,1.5673828125,36.605912362379875,-7.1368646396852435,-0.14371861640361772,65
1764359866.3346596,338,1.650390625,36.72622748120177,-2.2188792779240263,-0.02340349758172522,64
1764359866.4475286,338,1.650390625,36.8422986529029,-2.2188792779240263,0.09266767411940435,64
1764359866.5485578,328,1.6015625,36.646532873645306,-5.111811843665919,-0.10309810513818718,64
1764359866.649897,323,1.5771484375,36.8052808635211,-6.558278126536865,0.05564988473760479,63
1764359866.7519205,322,1.572265625,36.918455888732716,-6.847571383111055,0.1688249099492225,63
1764359866.853633,338,1.650390625,36.87088164420755,-2.2188792779240263,0.12125066542405705,64
1764359866.955675,329,1.6064453125,36.71733252104246,-4.82251858709173,-0.032298457741035236,64
1764359867.05719,323,1.5771484375,36.73051828709751,-6.558278126536865,-0.019112691685982952,63
1764359867.1586113,335,1.6357421875,36.59278950006231,-3.0867590476465945,-0.1568414787211836,63
1764359867.2601185,339,1.6552734375,36.74519339277248,-1.9295860213498373,-0.004437586011015071,63
1764359867.3613083,340,1.66015625,36.7928899544898,-1.6402927647756478,0.043258975706308433,62
1764359867.4628375,340,1.66015625,36.843257128814834,-1.6402927647756478,0.09362615003134067,62
1764359867.563996,322,1.572265625,36.862975293376884,-6.847571383111055,0.113344314593391,62
1764359867.6652615,338,1.650390625,36.911329688864015,-2.2188792779240263,0.16169871008052183,63
1764359867.7667665,330,1.611328125,36.84735794720936,-4.533225330517541,0.09772696842586726,63
1764359867.8680708,339,1.6552734375,36.92383971027559,-1.9295860213498373,0.1742087314920937,65
1764359867.9699187,338,1.650390625,36.78621079430122,-2.2188792779240263,0.03657981551772593,65
1764359868.0712318,322,1.572265625,36.578933435847155,-6.847571383111055,-0.1706975429363382,65
1764359868.1729827,340,1.66015625,36.795019957991904,-1.6402927647756478,0.04538897920841123,66
1764359868.2744598,330,1.611328125,36.686073737732286,-4.533225330517541,-0.06355724105120686,66
1764359868.3754368,339,1.6552734375,36.950895202269805,-1.9295860213498373,0.20126422348631223,66
1764359868.4767418,323,1.5771484375,36.90333745148117,-6.558278126536865,0.153706472697678,66
1764359868.5779715,333,1.6259765625,36.82109186433317,-3.6653455607949725,0.07146088554967633,66
1764359868.6792767,327,1.5966796875,36.82470454407142,-5.401105100240108,0.07507356528792997,66
1764359868.780448,326,1.591796875,36.58980237905569,-5.690398356814297,-0.1598285997278026,66
1764359868.8818867,326,1.591796875,36.79020163963015,-5.690398356814297,0.040570660846654505,67
1764359868.983458,321,1.5673828125,36.628314236944135,-7.1368646396852435,-0.12131674183935814,66
1764359869.0852098,338,1.650390625,36.60564718960334,-2.2188792779240263,-0.14398378918015453,66
1764359869.1868536,340,1.66015625,36.89195179694373,-1.6402927647756478,0.14232081816023623,65
1764359869.288525,335,1.6357421875,36.95560124996595,-3.0867590476465945,0.20597027118245848,63
1764359869.3897564,329,1.6064453125,36.9077550561152,-4.82251858709173,0.1581240773317063,62
1764359869.4908905,322,1.572265625,36.92742598619465,-6.847571383111055,0.17779500741115584,60
1764359869.5923913,326,1.591796875,36.959377250876486,-5.690398356814297,0.20974627209299257,60
1764359869.6937654,327,1.5966796875,36.69678914532483,-5.401105100240108,-0.052841833458664667,60
1764359869.7948925,332,1.62109375,36.62644136806674,-3.954638817369162,-0.12318961071675005,60
1764359869.8963945,336,1.640625,36.91801027268353,-2.797465791072405,0.16837929390003836,60
1764359869.9976373,322,1.572265625,36.88096633351008,-6.847571383111055,0.13133535472658764,61
1764359870.0989847,337,1.6455078125,36.72651699214418,-2.5081725344982155,-0.02311398663931641,61
1764359870.2008235,322,1.572265625,36.73212033507572,-6.847571383111055,-0.017510643707773,61
1764359870.302675,338,1.650390625,36.733754986450364,-2.2188792779240263,-0.015875992333128863,61
1764359870.4044895,333,1.6259765625,36.58239205068586,-3.6653455607949725,-0.16723892809763186,62
1764359870.5059266,332,1.62109375,36.82888170771762,-3.954638817369162,0.07925072893412732,61
1764359870.607644,326,1.591796875,36.636067442742146,-5.690398356814297,-0.11356353604134739,61
1764359870.7085295,337,1.6455078125,36.66097869066666,-2.5081725344982155,-0.08865228811683323,61
1764359870.8097847,340,1.66015625,36.64437891947741,-1.6402927647756478,-0.10525205930608195,61
1764359870.9111097,340,1.66015625,36.79827472515473,-1.6402927647756478,0.048643746371233476,60
1764359871.0125594,330,1.611328125,36.89067028313435,-4.533225330517541,0.14103930435085488,60
1764359871.1137924,332,1.62109375,36.858509872343134,-3.954638817369162,0.1088788935596412,60
1764359871.215061,333,1.6259765625,36.91722927511817,-3.6653455607949725,0.16759829633467405,61
1764359871.3167498,321,1.5673828125,36.628494109897495,-7.1368646396852435,-0.12113686888599773,63
1764359871.417983,339,1.6552734375,36.82670690493286,-1.9295860213498373,0.07707592614936942,63
1764359871.5194438,333,1.6259765625,36.95182569871197,-3.6653455607949725,0.20219471992847815,64
1764359871.6206093,338,1.650390625,36.907277306073695,-2.2188792779240263,0.15764632729020178,64
1764359871.7220247,333,1.6259765625,36.89066253117652,-3.6653455607949725,0.14103155239302367,65
1764359871.8231554,321,1.5673828125,36.92300461434914,-7.1368646396852435,0.1733736355656461,65
1764359871.9245653,326,1.591796875,36.88072359997328,-5.690398356814297,0.13109262118978648,65
1764359872.0256798,340,1.66015625,36.6576919634746,-1.6402927647756478,-0.09193901530889548,65
1764359872.12673,338,1.650390625,36.76892446235049,-2.2188792779240263,0.019293483566997338,66
1764359872.2276714,327,1.5966796875,36.89987953354451,-5.401105100240108,0.1502485547610135,67
1764359872.3289487,324,1.58203125,36.80667359522878,-6.268984869962677,0.05704261644528685,68
1764359872.431136,333,1.6259765625,36.63658130558416,-3.6653455607949725,-0.11304967319933468,69
1764359872.5331533,333,1.6259765625,36.60697315792665,-3.6653455607949725,-0.1426578208568401,70
1764359872.6366818,321,1.5673828125,36.62842521828804,-7.1368646396852435,-0.12120576049545662,70
1764359872.7384665,329,1.6064453125,36.66519130748756,-4.82251858709173,-0.08443967129593233,70
1764359872.8396912,325,1.5869140625,36.86318433258274,-5.9796916133884865,0.11355335379924725,70
1764359872.940901,330,1.611328125,36.81330916227022,-4.533225330517541,0.06367818348672927,70
1764359873.042984,324,1.58203125,36.65667443149842,-6.268984869962677,-0.09295654728506975,70
1764359873.1443172,321,1.5673828125,36.7947176582614,-7.1368646396852435,0.04508667947790457,70
1764359873.2458963,327,1.5966796875,36.71961432714889,-5.401105100240108,-0.030016651634603875,70
1764359873.3475173,340,1.66015625,36.93552824034025,-1.6402927647756478,0.1858972615567538,70
1764359873.4490314,325,1.5869140625,36.58979805473022,-5.9796916133884865,-0.15983292405327632,70
1764359873.5506458,331,1.6162109375,36.82361202129233,-4.243932073943351,0.07398104250883364,69
1764359873.65255,325,1.5869140625,36.8508256367056,-5.9796916133884865,0.10119465792210747,69
1764359873.7542744,328,1.6015625,36.71932408656027,-5.111811843665919,-0.030306892223222803,69
1764359873.8555806,321,1.5673828125,36.66437913929954,-7.1368646396852435,-0.0852518394839521,69
1764359873.9568517,337,1.6455078125,36.64754105421426,-2.5081725344982155,-0.10208992456923482,68
1764359874.0582411,327,1.5966796875,36.7254003571567,-5.401105100240108,-0.024230621626792015,68
1764359874.1596658,334,1.630859375,36.72675237521184,-3.3760523042207833,-0.022878603571655276,68
1764359874.2609136,327,1.5966796875,36.71710343521697,-5.401105100240108,-0.03252754356652332,68
1764359874.3620915,338,1.650390625,36.639249929810134,-2.2188792779240263,-0.11038104897335899,69
1764359874.4636958,340,1.66015625,36.77193509147869,-1.6402927647756478,0.0223041126951955,70
1764359874.5648754,331,1.6162109375,36.84456681731597,-4.243932073943351,0.09493583853247856,70
1764359874.6665986,333,1.6259765625,36.933076858727865,-3.6653455607949725,0.18344587994437234,70
1764359874.7686455,330,1.611328125,36.77844808622112,-4.533225330517541,0.02881710743762511,70
1764359874.8699079,331,1.6162109375,36.88283855489976,-4.243932073943351,0.13320757611626988,69
1764359874.9717462,335,1.6357421875,36.94007597600044,-3.0867590476465945,0.19044499721695018,68
1764359875.0730875,326,1.591796875,36.67764361306697,-5.690398356814297,-0.07198736571652375,68
1764359875.1742647,323,1.5771484375,36.80159113267711,-6.558278126536865,0.05196015389361719,68
1764359875.2757878,339,1.6552734375,36.67799811981865,-1.9295860213498373,-0.07163285896483984,68
1764359875.3773332,321,1.5673828125,36.89071404190438,-7.1368646396852435,0.14108306312088814,69
1764359875.4787138,340,1.66015625,36.65655737099688,-1.6402927647756478,-0.09307360778661433,69
1764359875.5805469,323,1.5771484375,36.5600733792413,-6.558278126536865,-0.18955759954219076,68
1764359875.682393,332,1.62109375,36.572925634486324,-3.954638817369162,-0.17670534429716866,68
1764359875.7837656,339,1.6552734375,36.798310576742054,-1.9295860213498373,0.048679597958560805,67
1764359875.8851416,327,1.5966796875,36.95242230732585,-5.401105100240108,0.2027913285423537,67
1764359875.98653,330,1.611328125,36.59760247288247,-4.533225330517541,-0.15202850590102202,66
1764359876.087918,322,1.572265625,36.817549511220626,-6.847571383111055,0.0679185324371332,66
1764359876.1894257,334,1.630859375,36.616777031986366,-3.3760523042207833,-0.1328539467971268,66
1764359876.2907908,325,1.5869140625,36.68874901519067,-5.9796916133884865,-0.06088196359281994,66
1764359876.391894,330,1.611328125,36.81596119440466,-4.533225330517541,0.06633021562116426,67
1764359876.4930098,324,1.58203125,36.766792815438286,-6.268984869962677,0.017161836654793206,67
1764359876.5941079,324,1.58203125,36.71603086978119,-6.268984869962677,-0.03360010900230037,68
1764359876.6952274,335,1.6357421875,36.810632312517626,-3.0867590476465945,0.06100133373413286,68
1764359876.7969162,332,1.62109375,36.61205587195383,-3.954638817369162,-0.13757510682966512,68
1764359876.8984878,332,1.62109375,36.60651005341692,-3.954638817369162,-0.14312092536657417,67
1764359877.0002425,338,1.650390625,36.56631646505561,-2.2188792779240263,-0.1833145137278862,66
1764359877.1017954,337,1.6455078125,36.78368019049261,-2.5081725344982155,0.034049211709117344,66
1764359877.2034001,330,1.611328125,36.90776187262908,-4.533225330517541,0.15813089384558765,65
1764359877.3045447,322,1.572265625,36.67935737399334,-6.847571383111055,-0.07027360479015243,66
1764359877.4061556,336,1.640625,36.816057571421595,-2.797465791072405,0.06642659263810202,66
1764359877.5075421,328,1.6015625,36.86738843206213,-5.111811843665919,0.11775745327863518,67
1764359877.6091664,322,1.572265625,36.79503887690911,-6.847571383111055,0.04540789812561741,67
1764359877.710376,325,1.5869140625,36.88671675381936,-5.9796916133884865,0.13708577503586383,68
1764359877.8117325,333,1.6259765625,36.9539456753444,-3.6653455607949725,0.20431469656090684,68
1764359877.913596,340,1.66015625,36.669172616094116,-1.6402927647756478,-0.08045836268937734,68
1764359878.0159364,325,1.5869140625,36.95641575878407,-5.9796916133884865,0.2067847800005751,68
1764359878.1184735,334,1.630859375,36.740125592264874,-3.3760523042207833,-0.009505386518618764,68
1764359878.220672,321,1.5673828125,36.60260864293142,-7.1368646396852435,-0.14702233585207125,69
1764359878.3225563,321,1.5673828125,36.62862195713559,-7.1368646396852435,-0.12100902164790028,69
1764359878.4244475,336,1.640625,36.79103788489833,-2.797465791072405,0.04140690611483677,69
1764359878.5260851,325,1.5869140625,36.92854795624734,-5.9796916133884865,0.1789169774638495,69
1764359878.6284864,327,1.5966796875,36.78230093532065,-5.401105100240108,0.03266995653715554,69
1764359878.7301755,335,1.6357421875,36.90415063067184,-3.0867590476465945,0.15451965188835004,69
1764359878.8324945,322,1.572265625,36.636934065074634,-6.847571383111055,-0.11269691370885937,69
1764359878.9337063,332,1.62109375,36.63761773631789,-3.954638817369162,-0.11201324246560063,69
1764359879.0349026,326,1.591796875,36.95289652905561,-5.690398356814297,0.20326555027211413,70
1764359879.1358237,321,1.5673828125,36.61456995756204,-7.1368646396852435,-0.13506102122145336,70
1764359879.2368858,327,1.5966796875,36.782455485588734,-5.401105100240108,0.03282450680524107,70
1764359879.3380098,331,1.6162109375,36.91549641382168,-4.243932073943351,0.16586543503818518,70
1764359879.439596,325,1.5869140625,36.85970009450855,-5.9796916133884865,0.11006911572505373,70
1764359879.540747,325,1.5869140625,36.610191378385764,-5.9796916133884865,-0.13943960039772918,70
1764359879.6425593,336,1.640625,36.595605750038956,-2.797465791072405,-0.15402522874453695,70
1764359879.7439158,340,1.66015625,36.933699663228005,-1.6402927647756478,0.18406868444451163,70
1764359879.8455913,330,1.611328125,36.64946377519618,-4.533225330517541,-0.10016720358731135,70
1764359879.9472704,333,1.6259765625,36.95168355015665,-3.6653455607949725,0.20205257137315868,70
1764359880.048507,324,1.58203125,36.87530037545316,-6.268984869962677,0.12566939666966448,69
1764359880.1496754,324,1.58203125,36.57481737751314,-6.268984869962677,-0.17481360127035117,69
1764359880.2510664,338,1.650390625,36.92808675780975,-2.2188792779240263,0.1784557790262582,68
1764359880.3524237,331,1.6162109375,36.64684340106631,-4.243932073943351,-0.10278757771718006,68
1764359880.4539123,332,1.62109375,36.84825576123733,-3.954638817369162,0.09862478245383954,68
1764359880.555434,336,1.640625,36.88366943618035,-2.797465791072405,0.13403845739685494,68
1764359880.656592,339,1.6552734375,36.7489469192901,-1.9295860213498373,-0.0006840594933947841,68
1764359880.7581987,333,1.6259765625,36.686581265735846,-3.6653455607949725,-0.06304971304764706,68
1764359880.8596113,325,1.5869140625,36.588573753796496,-5.9796916133884865,-0.16105722498699748,67
1764359880.9611802,330,1.611328125,36.665132768745586,-4.533225330517541,-0.08449821003790703,67
1764359881.0626647,338,1.650390625,36.874591165103126,-2.2188792779240263,0.12496018631963324,66
1764359881.165232,328,1.6015625,36.92686313510059,-5.111811843665919,0.1772321563170962,66
1764359881.2670674,330,1.611328125,36.66521805988744,-4.533225330517541,-0.08441291889605651,65
1764359881.3681877,330,1.611328125,36.75757705246725,-4.533225330517541,0.007946073683754662,65
1764359881.4693902,335,1.6357421875,36.67284297149969,-3.0867590476465945,-0.07678800728380253,65
1764359881.5704424,333,1.6259765625,36.91453599266568,-3.6653455607949725,0.16490501388218348,65
1764359881.6715956,323,1.5771484375,36.6141704797475,-6.558278126536865,-0.1354604990359931,64
1764359881.772907,323,1.5771484375,36.6793969856977,-6.558278126536865,-0.07023399308579314,64
1764359881.874274,332,1.62109375,36.570946226400324,-3.954638817369162,-0.1786847523831696,64
1764359881.9759989,336,1.640625,36.569663450253024,-2.797465791072405,-0.1799675285304687,64
1764359882.07719,321,1.5673828125,36.684844962039435,-7.1368646396852435,-0.06478601674405837,64
1764359882.1787555,329,1.6064453125,36.94013441749661,-4.82251858709173,0.19050343871311526,64
1764359882.2805889,336,1.640625,36.76062734170541,-2.797465791072405,0.010996362921915193,64
1764359882.3822525,335,1.6357421875,36.909181455066445,-3.0867590476465945,0.15955047628295205,63
1764359882.4835274,328,1.6015625,36.71420674264833,-5.111811843665919,-0.03542423613516377,64
1764359882.5848587,328,1.6015625,36.91039041193807,-5.111811843665919,0.16075943315457408,65
1764359882.686073,325,1.5869140625,36.867373506523805,-5.9796916133884865,0.11774252774031169,66
1764359882.7879796,322,1.572265625,36.619049729629744,-6.847571383111055,-0.13058124915374947,67
1764359882.8894954,326,1.591796875,36.588982461031364,-5.690398356814297,-0.1606485177521293,68
1764359882.9916875,328,1.6015625,36.584409009819005,-5.111811843665919,-0.16522196896448804,68
1764359883.093291,332,1.62109375,36.80261343155574,-3.954638817369162,0.05298245277224822,68
1764359883.194957,324,1.58203125,36.644896251670815,-6.268984869962677,-0.10473472711267817,68
1764359883.2970824,329,1.6064453125,36.61563294846945,-4.82251858709173,-0.13399803031404645,68
1764359883.398394,341,1.6650390625,36.850832869635205,-1.3509995082014585,0.10120189085171205,68
1764359883.4995651,329,1.6064453125,36.7105573450421,-4.82251858709173,-0.0390736337413955,68
1764359883.6008039,334,1.630859375,36.85753526479016,-3.3760523042207833,0.10790428600666502,68
1764359883.7019224,323,1.5771484375,36.94613955612908,-6.558278126536865,0.19650857734558969,67
1764359883.8033783,325,1.5869140625,36.65903202594386,-5.9796916133884865,-0.0905989528396347,65
1764359883.9051695,340,1.66015625,36.86225094951282,-1.6402927647756478,0.11261997072932672,64
1764359884.006836,336,1.640625,36.742310773799424,-2.797465791072405,-0.007320204984068823,62
1764359884.108484,321,1.5673828125,36.694644681957925,-7.1368646396852435,-0.054986296825568104,61
1764359884.2098868,322,1.572265625,36.68607607058529,-6.847571383111055,-0.0635549081982063,62
1764359884.3120098,327,1.5966796875,36.71389980107695,-5.401105100240108,-0.03573117770654477,64
1764359884.413406,322,1.572265625,36.80717612409465,-6.847571383111055,0.05754514531115973,65
1764359884.5145535,333,1.6259765625,36.8752205357379,-3.6653455607949725,0.12558955695440943,65
1764359884.6159506,328,1.6015625,36.93513540190248,-5.111811843665919,0.18550442311898507,67
1764359884.7173457,333,1.6259765625,36.73801174821382,-3.6653455607949725,-0.011619230569671402,66
1764359884.8184168,329,1.6064453125,36.690241048955585,-4.82251858709173,-0.05938992982790836,66
1764359884.9196265,320,1.5625,36.83336929331211,-7.426157896259433,0.0837383145286168,66
1764359885.0211346,336,1.640625,36.88564372453749,-2.797465791072405,0.13601274575399458,65
1764359885.1226892,322,1.572265625,36.57876504572105,-6.847571383111055,-0.17086593306244424,63
1764359885.2240818,340,1.66015625,36.64450447329152,-1.6402927647756478,-0.10512650549197389,61
1764359885.3264027,321,1.5673828125,36.69535767718741,-7.1368646396852435,-0.054273301596083456,61
1764359885.4278538,326,1.591796875,36.602920748090646,-5.690398356814297,-0.14671023069284672,62
1764359885.5291784,322,1.572265625,36.841907760825706,-6.847571383111055,0.09227678204221235,63
1764359885.6306558,324,1.58203125,36.87391121390909,-6.268984869962677,0.12428023512559605,64
1764359885.7321806,339,1.6552734375,36.57126767808055,-1.9295860213498373,-0.17836330070294082,66
1764359885.8333673,323,1.5771484375,36.83848535515248,-6.558278126536865,0.0888543763689853,65
1764359885.9346461,334,1.630859375,36.59273264296349,-3.3760523042207833,-0.1568983358200029,65
1764359886.035851,324,1.58203125,36.84607718033172,-6.268984869962677,0.09644620154822547,66
1764359886.13711,329,1.6064453125,36.59131643981785,-4.82251858709173,-0.15831453896564085,67
1764359886.2387648,330,1.611328125,36.66461661300307,-4.533225330517541,-0.08501436578042387,68
1764359886.3412056,324,1.58203125,36.800523983414685,-6.268984869962677,0.05089300463119173,68
1764359886.4426405,329,1.6064453125,36.81138881326992,-4.82251858709173,0.061757834486428465,68
1764359886.5450864,325,1.5869140625,36.693855026201994,-5.9796916133884865,-0.0557759525814987,68
1764359886.6467364,332,1.62109375,36.80170099130241,-3.954638817369162,0.05207001251891796,68
1764359886.7480423,332,1.62109375,36.56146430403311,-3.954638817369162,-0.1881666747503843,66
1764359886.8494542,331,1.6162109375,36.567388750083374,-4.243932073943351,-0.18224222870011886,65
1764359886.9510126,340,1.66015625,36.73936217620643,-1.6402927647756478,-0.010268802577066083,64
1764359887.0527663,340,1.66015625,36.620172497492895,-1.6402927647756478,-0.12945848129059812,64
1764359887.1538196,324,1.58203125,36.64013649011532,-6.268984869962677,-0.1094944886681759,63
1764359887.2552679,337,1.6455078125,36.64401405520432,-2.5081725344982155,-0.10561692357916996,65
1764359887.356613,324,1.58203125,36.82950480962472,-6.268984869962677,0.07987383084122968,66
1764359887.4583526,333,1.6259765625,36.90609140149932,-3.6653455607949725,0.15646042271582417,66
1764359887.5595229,325,1.5869140625,36.58039745312205,-5.9796916133884865,-0.1692335256614399,64
1764359887.6608891,323,1.5771484375,36.6722936334783,-6.558278126536865,-0.07733734530519598,63
1764359887.7620904,333,1.6259765625,36.92212972475892,-3.6653455607949725,0.17249874597542458,62
1764359887.863195,334,1.630859375,36.64911526086909,-3.3760523042207833,-0.10051571791440495,60
1764359887.964342,333,1.6259765625,36.88530188348678,-3.6653455607949725,0.13567090470328935,61
1764359888.0663974,335,1.6357421875,36.62493015767752,-3.0867590476465945,-0.12470082110597502,62
1764359888.1675913,333,1.6259765625,36.88472973117325,-3.6653455607949725,0.13509875238975866,62
1764359888.269205,340,1.66015625,36.7741147672476,-1.6402927647756478,0.024483788464110035,63
1764359888.3703637,337,1.6455078125,36.73161380174897,-2.5081725344982155,-0.018017177034522547,63
1764359888.4721203,327,1.5966796875,36.894674674206314,-5.401105100240108,0.14504369542282092,61
1764359888.5738707,325,1.5869140625,36.86638640680435,-5.9796916133884865,0.11675542802085914,60
1764359888.675765,324,1.58203125,36.76774070633686,-6.268984869962677,0.01810972755336593,59
1764359888.7773724,323,1.5771484375,36.71216201601107,-6.558278126536865,-0.03746896277242229,59
1764359888.8789725,325,1.5869140625,36.596258362351435,-5.9796916133884865,-0.15337261643205835,60
1764359888.980467,321,1.5673828125,36.72811031373863,-7.1368646396852435,-0.02152066504486072,61
1764359889.081473,331,1.6162109375,36.625313900840105,-4.243932073943351,-0.1243170779433882,62
1764359889.1825728,323,1.5771484375,36.62880713130874,-6.558278126536865,-0.12082384747475317,64
1764359889.2839859,339,1.6552734375,36.788087676335955,-1.9295860213498373,0.03845669755246206,64
1764359889.3856487,328,1.6015625,36.7273671403695,-5.111811843665919,-0.022263838413991266,64
1764359889.4868076,328,1.6015625,36.63512859242758,-5.111811843665919,-0.11450238635591603,64
1764359889.588288,331,1.6162109375,36.57737696935494,-4.243932073943351,-0.1722540094285563,64
1764359889.6898572,321,1.5673828125,36.91298854805709,-7.1368646396852435,0.16335756927360023,63
1764359889.7914946,321,1.5673828125,36.83650271189586,-7.1368646396852435,0.08687173311236762,64
1764359889.8929238,323,1.5771484375,36.66488094289431,-6.558278126536865,-0.08475003588918639,64
1764359889.9945967,322,1.572265625,36.660443747714886,-6.847571383111055,-0.08918723106860682,64
1764359890.0959496,326,1.591796875,36.8059393743418,-5.690398356814297,0.056308395558303914,64
1764359890.1971817,340,1.66015625,36.56125146380712,-1.6402927647756478,-0.18837951497637562,64
1764359890.298834,331,1.6162109375,36.73470130777153,-4.243932073943351,-0.014929671011962853,62
1764359890.3998606,334,1.630859375,36.75822468823127,-3.3760523042207833,0.00859370944777993,61
1764359890.501235,326,1.591796875,36.64919907783629,-5.690398356814297,-0.10043190094719989,59
1764359890.602638,325,1.5869140625,36.712136951291704,-5.9796916133884865,-0.037494027491788984,58
1764359890.7037592,336,1.640625,36.703287845023155,-2.797465791072405,-0.04634313376033816,57
1764359890.8053389,340,1.66015625,36.72100253265705,-1.6402927647756478,-0.02862844612644011,58
1764359890.907521,332,1.62109375,36.615780879204955,-3.954638817369162,-0.1338500995785381,59
1764359891.0087914,338,1.650390625,36.702007685287654,-2.2188792779240263,-0.047623293495838936,60
1764359891.1110759,339,1.6552734375,36.86885493666298,-1.9295860213498373,0.11922395787948403,61
1764359891.2121594,336,1.640625,36.951045620705784,-2.797465791072405,0.20141464192229108,61
1764359891.313723,321,1.5673828125,36.84676242994026,-7.1368646396852435,0.0971314511567698,62
1764359891.4148421,328,1.6015625,36.60221142057989,-5.111811843665919,-0.14741955820360175,62
1764359891.5159533,325,1.5869140625,36.7433206630703,-5.9796916133884865,-0.006310315713193404,62
1764359891.6176348,323,1.5771484375,36.73976852545693,-6.558278126536865,-0.009862453326562104,62
1764359891.7187278,338,1.650390625,36.604448941896166,-2.2188792779240263,-0.14518203688732711,62
1764359891.8203795,336,1.640625,36.87594996958364,-2.797465791072405,0.12631899080014364,62
1764359891.922245,333,1.6259765625,36.925068140393854,-3.6653455607949725,0.17543716161036116,62
1764359892.024309,320,1.5625,36.59704142983645,-7.426157896259433,-0.15258954894704146,62
1764359892.1262436,331,1.6162109375,36.75440289397226,-4.243932073943351,0.004771915188769071,63
1764359892.2276263,338,1.650390625,36.83148524540854,-2.2188792779240263,0.08185426662504369,63
1764359892.3287015,333,1.6259765625,36.75107553178699,-3.6653455607949725,0.0014445530034947751,63
1764359892.4301984,337,1.6455078125,36.76798446170898,-2.5081725344982155,0.01835348292548389,63
1764359892.5315847,330,1.611328125,36.74710416934256,-4.533225330517541,-0.002526809440929867,63
1764359892.633088,324,1.58203125,36.66636298780074,-6.268984869962677,-0.08326799098275472,62
1764359892.7347434,340,1.66015625,36.79169973123539,-1.6402927647756478,0.042068752451896785,62
1764359892.8360863,329,1.6064453125,36.73085549513322,-4.82251858709173,-0.018775483650273372,62
1764359892.9376733,337,1.6455078125,36.849026022902045,-2.5081725344982155,0.09939504411855182,63
1764359893.039238,321,1.5673828125,36.67362698179231,-7.1368646396852435,-0.07600399699118299,63
1764359893.1407785,327,1.5966796875,36.73236447201971,-5.401105100240108,-0.017266506763782274,64
1764359893.2422035,332,1.62109375,36.859194386774504,-3.954638817369162,0.10956340799101127,65
1764359893.3437307,321,1.5673828125,36.80619381595225,-7.1368646396852435,0.05656283716875521,65
1764359893.4451702,324,1.58203125,36.854539180480884,-6.268984869962677,0.10490820169739123,65
1764359893.5465791,324,1.58203125,36.717174225840374,-6.268984869962677,-0.03245675294311923,66
1764359893.6480625,333,1.6259765625,36.677248709474014,-3.6653455607949725,-0.07238226930947889,67
1764359893.7492352,338,1.650390625,36.92326459661075,-2.2188792779240263,0.17363361782725661,68
1764359893.8504858,326,1.591796875,36.8508180868178,-5.690398356814297,0.10118710803430986,68
1764359893.9519398,324,1.58203125,36.843673560499255,-6.268984869962677,0.09404258171576174,68
1764359894.0539825,338,1.650390625,36.76457514315254,-2.2188792779240263,0.014944164369047996,67
1764359894.1553867,340,1.66015625,36.801379804750546,-1.6402927647756478,0.05174882596705288,66
1764359894.257215,333,1.6259765625,36.914980229582184,-3.6653455607949725,0.16534925079869112,65
1764359894.358492,329,1.6064453125,36.93370611462436,-4.82251858709173,0.18407513584086388,64
1764359894.4602792,332,1.62109375,36.78859346541983,-3.954638817369162,0.03896248663633628,64
1764359894.561909,331,1.6162109375,36.91650535344834,-4.243932073943351,0.16687437466485022,63
1764359894.6634095,340,1.66015625,36.780440848203156,-1.6402927647756478,0.030809869419663016,62
1764359894.7648761,332,1.62109375,36.720913044527855,-3.954638817369162,-0.02871793425563851,62
1764359894.8663967,321,1.5673828125,36.8793871219415,-7.1368646396852435,0.129756143158005,62
1764359894.9677312,321,1.5673828125,36.666482168006354,-7.1368646396852435,-0.0831488107771392,63
1764359895.0693836,328,1.6015625,36.86874618619077,-5.111811843665919,0.1191152074072761,63
1764359895.1711254,336,1.640625,36.68386421570573,-2.797465791072405,-0.06576676307776097,64
1764359895.2731535,328,1.6015625,36.89134660431012,-5.111811843665919,0.1417156255266292,63
1764359895.3747697,323,1.5771484375,36.721440672374015,-6.558278126536865,-0.028190306409477728,63
1764359895.4761467,337,1.6455078125,36.7988760345041,-2.5081725344982155,0.049245055720604114,62
1764359895.5774844,335,1.6357421875,36.72129409046489,-3.0867590476465945,-0.028336888318605702,60
1764359895.6785297,321,1.5673828125,36.562304934414996,-7.1368646396852435,-0.18732604436849698,59
1764359895.7799866,335,1.6357421875,36.67653757260123,-3.0867590476465945,-0.07309340618226656,59
1764359895.881339,336,1.640625,36.56116849926796,-2.797465791072405,-0.18846247951553607,60
1764359895.982951,322,1.572265625,36.62605223043892,-6.847571383111055,-0.1235787483445705,59
1764359896.0840461,321,1.5673828125,36.75928295245305,-7.1368646396852435,0.009651973669555503,59
1764359896.1860783,324,1.58203125,36.94376597106682,-6.268984869962677,0.19413499228332398,59
1764359896.2882607,325,1.5869140625,36.67519782169286,-5.9796916133884865,-0.07443315709063114,58
1764359896.390233,335,1.6357421875,36.77639052552028,-3.0867590476465945,0.026759546736784046,57
1764359896.491801,333,1.6259765625,36.62943306059647,-3.6653455607949725,-0.1201979181870243,58
1764359896.5930977,341,1.6650390625,36.617234124835676,-1.3509995082014585,-0.1323968539478173,60
1764359896.6946392,331,1.6162109375,36.85870968002825,-4.243932073943351,0.10907870124475494,61
1764359896.7957346,320,1.5625,36.869010142878444,-7.426157896259433,0.1193791640949513,62
1764359896.8974965,321,1.5673828125,36.82869929494102,-7.1368646396852435,0.07906831615752452,63
1764359896.998678,338,1.650390625,36.65647124990457,-2.2188792779240263,-0.09315972887892343,63
1764359897.099727,323,1.5771484375,36.817263493446596,-6.558278126536865,0.06763251466310294,63
1764359897.2014582,326,1.591796875,36.81079565956168,-5.690398356814297,0.06116468077818382,63
1764359897.3032997,340,1.66015625,36.74668247338791,-1.6402927647756478,-0.0029485053955866647,62
1764359897.404691,331,1.6162109375,36.87382531874525,-4.243932073943351,0.124194339961754,61
1764359897.506565,331,1.6162109375,36.679472236646575,-4.243932073943351,-0.0701587421369183,60
1764359897.6076493,330,1.611328125,36.81373583046901,-4.533225330517541,0.06410485168551361,59
1764359897.7091486,325,1.5869140625,36.69635297802453,-5.9796916133884865,-0.05327800075896505,60
1764359897.810184,322,1.572265625,36.74822745526987,-6.847571383111055,-0.0014035235136233837,60
1764359897.9120378,321,1.5673828125,36.64693063052272,-7.1368646396852435,-0.10270034826077534,60
1764359898.0133724,329,1.6064453125,36.945014714164365,-4.82251858709173,0.19538373538087228,60
1764359898.1147428,322,1.572265625,36.59243635435882,-6.847571383111055,-0.15719462442467602,62
1764359898.2164707,327,1.5966796875,36.68919187172736,-5.401105100240108,-0.06043910705613342,63
1764359898.3176126,330,1.611328125,36.94579413751454,-4.533225330517541,0.1961631587310464,63
1764359898.4191449,325,1.5869140625,36.784776387148455,-5.9796916133884865,0.035145408364961384,63
1764359898.5203774,333,1.6259765625,36.59416941234975,-3.6653455607949725,-0.15546156643374331,63
1764359898.6214035,336,1.640625,36.8657397230912,-2.797465791072405,0.11610874430770934,62
1764359898.7228703,338,1.650390625,36.71601459461346,-2.2188792779240263,-0.03361638417003121,60
1764359898.8241296,340,1.66015625,36.86948810332325,-1.6402927647756478,0.11985712453975594,60
1764359898.925435,335,1.6357421875,36.83247726644999,-3.0867590476465945,0.0828462876664986,60
1764359899.026486,327,1.5966796875,36.693792629268536,-5.401105100240108,-0.05583834951495703,59
1764359899.127526,320,1.5625,36.65046176069353,-7.426157896259433,-0.09916921808996193,58
1764359899.228537,328,1.6015625,36.9046312471755,-5.111811843665919,0.15500026839200842,58
1764359899.3296185,338,1.650390625,36.64087760600603,-2.2188792779240263,-0.10875337277746411,57
1764359899.4311268,339,1.6552734375,36.736235978922444,-1.9295860213498373,-0.013394999861048973,57
1764359899.5331268,335,1.6357421875,36.65689798887672,-3.0867590476465945,-0.09273298990677148,58
1764359899.635127,332,1.62109375,36.66130067187811,-3.954638817369162,-0.08833030690538379,60
1764359899.736623,328,1.6015625,36.67867594378228,-5.111811843665919,-0.07095503500121225,62
1764359899.8379297,340,1.66015625,36.76962203735292,-1.6402927647756478,0.01999105856942407,64
1764359899.9394596,328,1.6015625,36.75609250689002,-5.111811843665919,0.006461528106527226,65
1764359900.0408986,339,1.6552734375,36.7005304070274,-1.9295860213498373,-0.04910057175609239,64
1764359900.1422536,340,1.66015625,36.73110551638058,-1.6402927647756478,-0.01852546240291275,64
1764359900.2437468,333,1.6259765625,36.64916012978646,-3.6653455607949725,-0.10047084899703407,64
1764359900.3448186,322,1.572265625,36.89382209060309,-6.847571383111055,0.14419111181959465,63
1764359900.4462852,329,1.6064453125,36.60750536623843,-4.82251858709173,-0.1421256125450654,62
1764359900.5474484,335,1.6357421875,36.70574649180438,-3.0867590476465945,-0.04388448697910974,60
1764359900.6492102,328,1.6015625,36.73159324293755,-5.111811843665919,-0.018037735845943814,59
1764359900.7506876,334,1.630859375,36.8474792694302,-3.3760523042207833,0.0978482906467093,58
1764359900.8522246,338,1.650390625,36.74070975284162,-2.2188792779240263,-0.008921225941875832,56
1764359900.9535742,334,1.630859375,36.75942755791851,-3.3760523042207833,0.009796579135013417,58
1764359901.0552075,323,1.5771484375,36.956303129775314,-6.558278126536865,0.206672150991821,59
1764359901.1563537,321,1.5673828125,36.564377907949655,-7.1368646396852435,-0.1852530708338378,58
1764359901.2575579,341,1.6650390625,36.68493602012016,-1.3509995082014585,-0.06469495866333119,57
1764359901.3588274,337,1.6455078125,36.83547689191786,-2.5081725344982155,0.08584591313436363,57
1764359901.460203,332,1.62109375,36.94750391442966,-3.954638817369162,0.19787293564616704,56
1764359901.5614107,326,1.591796875,36.65728957039883,-5.690398356814297,-0.09234140838466232,55
1764359901.6628911,335,1.6357421875,36.83404157151119,-3.0867590476465945,0.0844105927276999,56
1764359901.764936,325,1.5869140625,36.66142424783497,-5.9796916133884865,-0.08820673094852083,57
1764359901.8663285,322,1.572265625,36.63352765565055,-6.847571383111055,-0.1161033231329398,57
1764359901.968011,331,1.6162109375,36.7168693867178,-4.243932073943351,-0.032761592065689626,57
1764359902.0694146,327,1.5966796875,36.943075227507165,-5.401105100240108,0.19344424872367227,57
1764359902.170879,322,1.572265625,36.79556323097183,-6.847571383111055,0.04593225218833652,57
1764359902.2720623,321,1.5673828125,36.666094060725264,-7.1368646396852435,-0.08353691805822905,58
1764359902.373127,322,1.572265625,36.7107315002356,-6.847571383111055,-0.03889947854789,60
1764359902.4743233,331,1.6162109375,36.935243495494355,-4.243932073943351,0.18561251671086154,60
1764359902.5756843,323,1.5771484375,36.64702145428356,-6.558278126536865,-0.10260952449993255,60
1764359902.6775265,333,1.6259765625,36.81555353968823,-3.6653455607949725,0.06592256090473825,60
1764359902.7788956,328,1.6015625,36.84663210105962,-5.111811843665919,0.09700112227612578,58
1764359902.8807282,326,1.591796875,36.571497026618246,-5.690398356814297,-0.17813395216524697,57
1764359902.981989,340,1.66015625,36.90975042922401,-1.6402927647756478,0.16011945044051856,58
1764359903.083314,325,1.5869140625,36.560222455312676,-5.9796916133884865,-0.18940852347081716,59
1764359903.1846678,328,1.6015625,36.87237747161714,-5.111811843665919,0.1227464928336488,59
1764359903.2861032,329,1.6064453125,36.92044264254954,-4.82251858709173,0.17081166376604529,59
1764359903.3875382,321,1.5673828125,36.60071229642025,-7.1368646396852435,-0.14891868236324513,60
1764359903.4887815,321,1.5673828125,36.56830608437974,-7.1368646396852435,-0.1813248944037511,59
1764359903.5899441,334,1.630859375,36.89404541746524,-3.3760523042207833,0.14441443868174986,59
1764359903.6911097,329,1.6064453125,36.93933309057115,-4.82251858709173,0.1897021117876534,59
1764359903.7926614,338,1.650390625,36.60140631435815,-2.2188792779240263,-0.1482246644253422,60
1764359903.8939533,328,1.6015625,36.79759119293077,-5.111811843665919,0.047960214147273916,60
1764359903.9955835,324,1.58203125,36.88998102465058,-6.268984869962677,0.14035004586708766,60
1764359904.097449,329,1.6064453125,36.78258629165784,-4.82251858709173,0.03295531287434983,60
1764359904.1993718,337,1.6455078125,36.88767027744238,-2.5081725344982155,0.13803929865888875,60
1764359904.3015356,325,1.5869140625,36.651060714581696,-5.9796916133884865,-0.09857026420179693,59
1764359904.4031875,338,1.650390625,36.723483505194345,-2.2188792779240263,-0.026147473589148262,59
1764359904.5043268,328,1.6015625,36.5847991212704,-5.111811843665919,-0.16483185751309293,60
1764359904.6056726,322,1.572265625,36.8878030458298,-6.847571383111055,0.13817206704630536,60
1764359904.707766,332,1.62109375,36.88409359098477,-3.954638817369162,0.13446261220127553,61
1764359904.809377,322,1.572265625,36.75023819248627,-6.847571383111055,0.0006072137027786084,61
1764359904.911051,331,1.6162109375,36.67293139296668,-4.243932073943351,-0.07669958581681158,61
1764359905.0123086,331,1.6162109375,36.92716900118643,-4.243932073943351,0.17753802240293481,61
1764359905.113715,333,1.6259765625,36.635138659196656,-3.6653455607949725,-0.11449231958683725,61
1764359905.2197638,329,1.6064453125,36.70711076868753,-4.82251858709173,-0.04252021009596518,61
1764359905.3214808,335,1.6357421875,36.658420897027725,-3.0867590476465945,-0.09121008175576861,62
1764359905.4230902,334,1.630859375,36.617440684309095,-3.3760523042207833,-0.13219029447439823,62
1764359905.5244753,324,1.58203125,36.6638945905531,-6.268984869962677,-0.08573638823039431,62
1764359905.6261573,325,1.5869140625,36.68968843496698,-5.9796916133884865,-0.05994254381651132,63
1764359905.7277231,330,1.611328125,36.74441149434223,-4.533225330517541,-0.005219484441262523,63
1764359905.8293457,331,1.6162109375,36.66103027089956,-4.243932073943351,-0.08860070788393415,63
1764359905.9309306,331,1.6162109375,36.737705776345976,-4.243932073943351,-0.011925202437517157,63
1764359906.0323217,335,1.6357421875,36.83264997034926,-3.0867590476465945,0.08301899156576553,63
1764359906.1339483,332,1.62109375,36.7936715514295,-3.954638817369162,0.04404057264600425,63
1764359906.2354639,322,1.572265625,36.75020435494763,-6.847571383111055,0.0005733761641337765,63
1764359906.3364367,324,1.58203125,36.66674447691248,-6.268984869962677,-0.0828865018710161,63
1764359906.43778,338,1.650390625,36.89747527767482,-2.2188792779240263,0.14784429889132866,64
1764359906.5388854,326,1.591796875,36.67124768742639,-5.690398356814297,-0.07838329135710609,63
1764359906.6400037,333,1.6259765625,36.64653298588119,-3.6653455607949725,-0.10309799290230615,63
1764359906.7415528,325,1.5869140625,36.71221138223173,-5.9796916133884865,-0.0374195965517643,62
1764359906.8426619,338,1.650390625,36.84299832000581,-2.2188792779240263,0.0933673412223186,61
1764359906.9440684,327,1.5966796875,36.83840674029009,-5.401105100240108,0.0887757615065965,60
1764359907.0461276,327,1.5966796875,36.83225188188941,-5.401105100240108,0.0826209031059193,60
1764359907.1489234,327,1.5966796875,36.86760460323245,-5.401105100240108,0.11797362444895754,60
1764359907.2506254,335,1.6357421875,36.75326301426455,-3.0867590476465945,0.0036320354810541744,60
1764359907.3520138,334,1.630859375,36.64919937943814,-3.3760523042207833,-0.10043159934535595,60
1764359907.4531453,323,1.5771484375,36.777743851983445,-6.558278126536865,0.028112873199951594,61
1764359907.554247,337,1.6455078125,36.581587850115525,-2.5081725344982155,-0.16804312866796778,62
1764359907.6554,336,1.640625,36.627212502563395,-2.797465791072405,-0.12241847622009772,63
1764359907.756724,334,1.630859375,36.786265250407226,-3.3760523042207833,0.03663427162373267,64
1764359907.858026,337,1.6455078125,36.76817874951628,-2.5081725344982155,0.018547770732787683,63
1764359907.959171,324,1.58203125,36.89650960275878,-6.268984869962677,0.14687862397529017,64
1764359908.0609488,329,1.6064453125,36.76614492342273,-4.82251858709173,0.016513944639235945,64
1764359908.1622744,328,1.6015625,36.65727149752833,-5.111811843665919,-0.09235948125516558,65
1764359908.2638407,341,1.6650390625,36.823391475885565,-1.3509995082014585,0.07376049710207155,66
1764359908.3655133,325,1.5869140625,36.74350190307563,-5.9796916133884865,-0.00612907570786092,68
1764359908.4675543,335,1.6357421875,36.708881101615745,-3.0867590476465945,-0.04074987716774814,68
1764359908.569124,322,1.572265625,36.6294424738192,-6.847571383111055,-0.12018850496428968,68
1764359908.6704006,323,1.5771484375,36.79452039962498,-6.558278126536865,0.04488942084148562,67
1764359908.771928,331,1.6162109375,36.57443133636146,-4.243932073943351,-0.17519964242203656,67
1764359908.8731484,324,1.58203125,36.785501209229004,-6.268984869962677,0.03587023044551074,65
1764359908.9746683,331,1.6162109375,36.70682143824705,-4.243932073943351,-0.04280954053644592,63
1764359909.0757985,340,1.66015625,36.6595391537402,-1.6402927647756478,-0.09009182504329516,63
1764359909.1774132,325,1.5869140625,36.78462662205182,-5.9796916133884865,0.03499564326832427,62
1764359909.2788863,331,1.6162109375,36.8088927714742,-4.243932073943351,0.059261792690705306,62
1764359909.380641,339,1.6552734375,36.87672977600398,-1.9295860213498373,0.12709879722048356,63
1764359909.4820979,329,1.6064453125,36.76411462000508,-4.82251858709173,0.014483641221588073,65
1764359909.5833013,325,1.5869140625,36.86454425208407,-5.9796916133884865,0.11491327330057999,67
1764359909.6844466,323,1.5771484375,36.874419332871064,-6.558278126536865,0.1247883540875705,69
1764359909.7856905,332,1.62109375,36.94944465377783,-3.954638817369162,0.19981367499433844,71
1764359909.8866782,324,1.58203125,36.67601532107185,-6.268984869962677,-0.0736156577116418,70
1764359909.9883316,335,1.6357421875,36.63600296087739,-3.0867590476465945,-0.11362801790610177,68
1764359910.089789,321,1.5673828125,36.940551893292145,-7.1368646396852435,0.19092091450865212,66
1764359910.1908526,331,1.6162109375,36.95239172746016,-4.243932073943351,0.20276074867666694,65
1764359910.2921636,322,1.572265625,36.92308629353455,-6.847571383111055,0.17345531475105957,65
1764359910.3938835,320,1.5625,36.64834226816029,-7.426157896259433,-0.10128871062320144,67
1764359910.4961114,330,1.611328125,36.88678099987604,-4.533225330517541,0.1371500210925447,69
1764359910.597436,325,1.5869140625,36.90879904038433,-5.9796916133884865,0.15916806160083752,69
1764359910.6994479,321,1.5673828125,36.6778395344994,-7.1368646396852435,-0.07179144428409501,67
1764359910.8005502,329,1.6064453125,36.7561161485908,-4.82251858709173,0.006485169807305624,66
1764359910.9022794,340,1.66015625,36.92024425100007,-1.6402927647756478,0.17061327221657763,65
1764359911.0037377,336,1.640625,36.711858153017054,-2.797465791072405,-0.0377728257664387,65
1764359911.1051795,332,1.62109375,36.63340020761276,-3.954638817369162,-0.11623077117073422,66
1764359911.206372,336,1.640625,36.659915294982355,-2.797465791072405,-0.08971568380113837,68
1764359911.307622,329,1.6064453125,36.65346010886715,-4.82251858709173,-0.09617086991634238,70
1764359911.4096258,334,1.630859375,36.83552330248224,-3.3760523042207833,0.08589232369874367,70
1764359911.5115888,323,1.5771484375,36.74522344041059,-6.558278126536865,-0.004407538372902309,71
1764359911.613158,321,1.5673828125,36.70816145768503,-7.1368646396852435,-0.04146952109846325,71
1764359911.7145908,331,1.6162109375,36.775465855400185,-4.243932073943351,0.025834876616691815,71
1764359911.8156164,321,1.5673828125,36.62220223638241,-7.1368646396852435,-0.12742874240108648,71
1764359911.9173613,334,1.630859375,36.87682148569554,-3.3760523042207833,0.1271905069120436,70
1764359912.0186644,336,1.640625,36.89994142782275,-2.797465791072405,0.15031044903926016,71
1764359912.1201205,323,1.5771484375,36.9297226802835,-6.558278126536865,0.18009170150000386,71
1764359912.2212486,333,1.6259765625,36.69581959611148,-3.6653455607949725,-0.05381138267201635,71
1764359912.3231657,322,1.572265625,36.938957461560555,-6.847571383111055,0.1893264827770622,72
1764359912.4245868,334,1.630859375,36.66496674481911,-3.3760523042207833,-0.08466423396438216,73
1764359912.5265508,334,1.630859375,36.63891639920187,-3.3760523042207833,-0.11071457958162512,72
1764359912.6279454,341,1.6650390625,36.762108091282464,-1.3509995082014585,0.012477112498970655,72
1764359912.7294497,331,1.6162109375,36.86188166177391,-4.243932073943351,0.11225068299041396,73
1764359912.8307922,328,1.6015625,36.92437773247304,-5.111811843665919,0.17474675368954706,72
1764359912.9319541,338,1.650390625,36.73965319312642,-2.2188792779240263,-0.009977785657071081,71
1764359913.033174,335,1.6357421875,36.63894713912001,-3.0867590476465945,-0.11068383966347994,70
1764359913.13478,340,1.66015625,36.59296249913424,-1.6402927647756478,-0.15666847964925523,69
1764359913.2362912,321,1.5673828125,36.92601912359203,-7.1368646396852435,0.17638814480853426,69
1764359913.3376133,339,1.6552734375,36.73377812602328,-1.9295860213498373,-0.015852852760211533,69
1764359913.4391482,337,1.6455078125,36.71349355822717,-2.5081725344982155,-0.0361374205563223,69
1764359913.5407588,328,1.6015625,36.94827080801822,-5.111811843665919,0.1986398292347289,69
1764359913.6427212,339,1.6552734375,36.65643562574719,-1.9295860213498373,-0.09319535303630033,69
1764359913.74426,333,1.6259765625,36.75270429510207,-3.6653455607949725,0.0030733163185772128,69
1764359913.8460402,329,1.6064453125,36.758554330963136,-4.82251858709173,0.008923352179643018,71
1764359913.9475334,335,1.6357421875,36.613506449277736,-3.0867590476465945,-0.13612452950575715,72
1764359914.0493667,328,1.6015625,36.62499708126053,-5.111811843665919,-0.12463389752296195,73
1764359914.1504827,332,1.62109375,36.68593887523387,-3.954638817369162,-0.06369210354962007,74
1764359914.251709,335,1.6357421875,36.89132704311935,-3.0867590476465945,0.14169606433585358,74
1764359914.3532622,337,1.6455078125,36.83326590852627,-2.5081725344982155,0.08363492974277875,73
1764359914.454312,328,1.6015625,36.93163125631815,-5.111811843665919,0.1820002775346552,73
1764359914.5555625,332,1.62109375,36.70133186632911,-3.954638817369162,-0.04829911245438012,73
1764359914.6577764,332,1.62109375,36.70751619227672,-3.954638817369162,-0.04211478650677236,72
1764359914.7592812,321,1.5673828125,36.75246787997414,-7.1368646396852435,0.0028369011906477226,73
1764359914.8613563,334,1.630859375,36.706538537380695,-3.3760523042207833,-0.04309244140279844,74
1764359914.9630089,340,1.66015625,36.88808042751622,-1.6402927647756478,0.1384494487327288,74
1764359915.0642254,324,1.58203125,36.563154025883584,-6.268984869962677,-0.18647695289990907,74
1764359915.1653717,329,1.6064453125,36.789642476644474,-4.82251858709173,0.04001149786098068,74
1764359915.2668784,335,1.6357421875,36.731762487724296,-3.0867590476465945,-0.017868491059196856,75
1764359915.368254,340,1.66015625,36.936029625945324,-1.6402927647756478,0.1863986471618304,75
1764359915.4693735,325,1.5869140625,36.88455203749075,-5.9796916133884865,0.13492105870725624,74
1764359915.5706105,341,1.6650390625,36.73314822822116,-1.3509995082014585,-0.01648275056233217,74
1764359915.6718464,333,1.6259765625,36.70930971499659,-3.6653455607949725,-0.040321263786900374,74
1764359915.773603,327,1.5966796875,36.67131751156039,-5.401105100240108,-0.07831346722310428,74
1764359915.8756282,341,1.6650390625,36.66257667035475,-1.3509995082014585,-0.08705430842874051,74
1764359915.9774418,336,1.640625,36.77716582501638,-2.797465791072405,0.027534846232889265,75
