timestamp,ecg_raw,ecg_voltage,temperature,ecg_change_percent,temp_change_celsius,bpm
1764974022.902617,338,1.650390625,36.867055132459484,-1.983069217024516,0.11291084868027923,60
1764974023.0039623,331,1.6162109375,36.62204714067478,-4.013005653358328,-0.13209714310442422,60
1764974023.1053522,333,1.6259765625,36.75163548138734,-3.4330238144058103,-0.002508802391865572,60
1764974023.2071788,332,1.62109375,36.65574500693406,-3.7230147338820694,-0.09839927684514294,60
1764974023.3088872,325,1.5869140625,36.664732614477614,-5.752951170215881,-0.08941166930159028,60
1764974023.410922,333,1.6259765625,36.87534041144747,-3.4330238144058103,0.12119612766826293,60
1764974023.5122623,323,1.5771484375,36.638151769997364,-6.332933009168398,-0.1159925137818405,60
1764974023.6140962,324,1.58203125,36.61802841109257,-6.04294208969214,-0.13611587268663783,60
1764974023.7155576,326,1.591796875,36.87770320899695,-5.462960250739622,0.12355892521774337,60
1764974023.8167012,337,1.6455078125,36.7494315676506,-2.2730601365007748,-0.0047127161286013575,60
1764974023.9179144,337,1.6455078125,36.66100611726925,-2.2730601365007748,-0.09313816650995221,60
1764974024.019116,328,1.6015625,36.718883211463876,-4.8829784117871045,-0.035261072315329045,60
1764974024.1204295,338,1.650390625,36.667394995207616,-1.983069217024516,-0.08674928857158903,60
1764974024.2218935,337,1.6455078125,36.66694276691348,-2.2730601365007748,-0.08720151686572564,60
1764974024.3230836,338,1.650390625,36.87858699808435,-1.983069217024516,0.12444271430514675,60
1764974024.42492,335,1.6357421875,36.86095646084088,-2.8530419754532925,0.106812177061677,60
1764974024.5264544,334,1.630859375,36.588510152967466,-3.1430328949295516,-0.16563413081173906,60
1764974024.627998,333,1.6259765625,36.896305750585455,-3.4330238144058103,0.1421614668062503,60
1764974024.7294986,326,1.591796875,36.8159424992545,-5.462960250739622,0.061798215475292295,60
1764974024.8309631,328,1.6015625,36.68072255983513,-4.8829784117871045,-0.07342172394407243,60
1764974024.9329076,324,1.58203125,36.83175813561661,-6.04294208969214,0.07761385183740543,60
1764974025.0342147,325,1.5869140625,36.93040058135876,-5.752951170215881,0.17625629757955608,60
1764974025.1355832,332,1.62109375,36.60973328464054,-3.7230147338820694,-0.14441099913866395,60
1764974025.237049,324,1.58203125,36.63216657146847,-6.04294208969214,-0.12197771231073773,60
1764974025.3384142,329,1.6064453125,36.8597388172481,-4.592987492310845,0.10559453346889569,60
1764974025.4410324,331,1.6162109375,36.85402608188873,-4.013005653358328,0.09988179810952857,60
1764974025.5436237,321,1.5673828125,36.83021123363367,-6.9129148481209155,0.07606694985446438,60
1764974025.6453583,325,1.5869140625,36.895475008245825,-5.752951170215881,0.14133072446661998,61
1764974025.7464886,330,1.611328125,36.74747422873306,-4.302996572834586,-0.006670055046143375,61
1764974025.8477085,337,1.6455078125,36.58042705711925,-2.2730601365007748,-0.17371722665995293,61
1764974025.9489698,335,1.6357421875,36.85669560250048,-2.8530419754532925,0.10255131872127521,61
1764974026.0503721,331,1.6162109375,36.641925136730784,-4.013005653358328,-0.11221914704842106,61
1764974026.1515641,327,1.5966796875,36.72711600845329,-5.172969331263364,-0.027028275325918116,61
1764974026.2526042,328,1.6015625,36.88407891672252,-4.8829784117871045,0.12993463294331775,60
1764974026.35412,340,1.66015625,36.5649537815641,-1.4030873780719983,-0.18919050221510503,60
1764974026.4573963,340,1.66015625,36.783493647976854,-1.4030873780719983,0.029349364197649663,60
1764974026.5594304,334,1.630859375,36.74658005631961,-3.1430328949295516,-0.007564227459596395,60
1764974026.66039,333,1.6259765625,36.594838263742815,-3.4330238144058103,-0.15930602003638938,60
1764974026.7618058,338,1.650390625,36.80150339735114,-1.983069217024516,0.04735911357193601,60
1764974026.8631809,339,1.6552734375,36.87846440891531,-1.6930782975482572,0.12432012513610857,60
1764974026.9643292,335,1.6357421875,36.7662863491677,-2.8530419754532925,0.012142065388495382,60
1764974027.06559,325,1.5869140625,36.76336221054651,-5.752951170215881,0.00921792676730604,60
1764974027.1670046,329,1.6064453125,36.68272637308097,-4.592987492310845,-0.07141791069823711,60
1764974027.2684333,337,1.6455078125,36.59233224428678,-2.2730601365007748,-0.16181203949242473,60
1764974027.3696327,325,1.5869140625,36.85946943899641,-5.752951170215881,0.10532515521720853,60
1764974027.4717894,341,1.6650390625,36.90733994734381,-1.1130964585957395,0.15319566356460257,60
1764974027.5734246,337,1.6455078125,36.73636896875623,-2.2730601365007748,-0.01777531502297336,60
1764974027.6747043,328,1.6015625,36.69703835524595,-4.8829784117871045,-0.0571059285332538,60
1764974027.7759213,333,1.6259765625,36.80054182262555,-3.4330238144058103,0.046397538846342457,60
1764974027.8773398,340,1.66015625,36.59471556043073,-1.4030873780719983,-0.15942872334847635,60
1764974027.9786015,327,1.5966796875,36.89892720536683,-5.172969331263364,0.14478292158762684,60
1764974028.0799923,337,1.6455078125,36.874339590867486,-2.2730601365007748,0.12019530708828086,60
1764974028.1817703,332,1.62109375,36.64799144528016,-3.7230147338820694,-0.10615283849904245,60
1764974028.2830343,330,1.611328125,36.781236338391345,-4.302996572834586,0.02709205461214026,60
1764974028.3850121,325,1.5869140625,36.666595139670676,-5.752951170215881,-0.08754914410852876,60
1764974028.4867938,330,1.611328125,36.757366539023536,-4.302996572834586,0.0032222552443315067,60
1764974028.5886104,330,1.611328125,36.85541192086902,-4.302996572834586,0.10126763708981201,60
1764974028.6899457,324,1.58203125,36.69659039692739,-6.04294208969214,-0.05755388685181373,60
1764974028.7911744,334,1.630859375,36.59545512410997,-3.1430328949295516,-0.1586891596692368,60
1764974028.8921664,328,1.6015625,36.788243231802724,-4.8829784117871045,0.034098948023519426,60
1764974028.9930906,322,1.572265625,36.900001124985174,-6.622923928644657,0.1458568412059691,60
1764974029.0949056,336,1.640625,36.920646428072054,-2.5630510559770334,0.16650214429284915,60
1764974029.1960332,332,1.62109375,36.94449908499439,-3.7230147338820694,0.1903548012151859,60
1764974029.297771,335,1.6357421875,36.79239127615847,-2.8530419754532925,0.0382469923792641,61
1764974029.3989325,331,1.6162109375,36.68436719574007,-4.013005653358328,-0.06977708803913174,61
1764974029.5003111,340,1.66015625,36.74706381340775,-1.4030873780719983,-0.00708047037145576,62
1764974029.602268,324,1.58203125,36.847246832065146,-6.04294208969214,0.09310254828594111,63
1764974029.7039402,339,1.6552734375,36.76329342131693,-1.6930782975482572,0.009149137537725949,63
1764974029.8057861,324,1.58203125,36.75863303265341,-6.04294208969214,0.004488748874202031,63
1764974029.9069939,340,1.66015625,36.81932522983437,-1.4030873780719983,0.06518094605516467,63
1764974030.0084927,340,1.66015625,36.587502950607906,-1.4030873780719983,-0.1666413331712988,63
1764974030.1096563,323,1.5771484375,36.66175279015119,-6.332933009168398,-0.09239149362801413,63
1764974030.211136,325,1.5869140625,36.728014296364734,-5.752951170215881,-0.026129987414471145,63
1764974030.3125093,328,1.6015625,36.812776555701994,-4.8829784117871045,0.058632271922789414,63
1764974030.4138184,328,1.6015625,36.95541017136226,-4.8829784117871045,0.2012658875830553,63
1764974030.5149753,332,1.62109375,36.883003598264494,-3.7230147338820694,0.12885931448528964,63
1764974030.6161718,328,1.6015625,36.81880916260527,-4.8829784117871045,0.06466487882606486,63
1764974030.7175264,338,1.650390625,36.933795070499194,-1.983069217024516,0.17965078671998924,63
1764974030.8190022,338,1.650390625,36.79311170837591,-1.983069217024516,0.03896742459670577,63
1764974030.9203575,322,1.572265625,36.839096595183825,-6.622923928644657,0.08495231140462067,63
1764974031.0217924,327,1.5966796875,36.89608661991654,-5.172969331263364,0.1419423361373333,63
1764974031.1227474,340,1.66015625,36.88003810658624,-1.4030873780719983,0.12589382280703632,63
1764974031.2239592,339,1.6552734375,36.56233135619866,-1.6930782975482572,-0.1918129275805427,63
1764974031.325186,334,1.630859375,36.57558776422954,-3.1430328949295516,-0.1785565195496659,63
1764974031.426381,328,1.6015625,36.764219644399205,-4.8829784117871045,0.01007536062000014,63
1764974031.527599,338,1.650390625,36.71074322720451,-1.983069217024516,-0.04340105657469451,63
1764974031.6289902,329,1.6064453125,36.64688338249034,-4.592987492310845,-0.10726090128886767,63
1764974031.7305715,334,1.630859375,36.885783229059705,-3.1430328949295516,0.1316389452804998,63
1764974031.831722,322,1.572265625,36.6083715236179,-6.622923928644657,-0.14577276016130725,63
1764974031.9329216,332,1.62109375,36.568409771567055,-3.7230147338820694,-0.1857345122121501,63
1764974032.0346751,325,1.5869140625,36.63044264606851,-5.752951170215881,-0.12370163771069542,63
1764974032.1363516,335,1.6357421875,36.794892762183316,-2.8530419754532925,0.040748478404111665,63
1764974032.2376394,338,1.650390625,36.74929042423139,-1.983069217024516,-0.0048538595478149205,63
1764974032.3395925,334,1.630859375,36.746079262523544,-3.1430328949295516,-0.008065021255660554,63
1764974032.4759984,329,1.6064453125,36.78551685873157,-4.592987492310845,0.03137257495236412,60
1764974032.5773022,328,1.6015625,36.64827354958904,-4.8829784117871045,-0.10587073419016235,58
1764974032.6784573,325,1.5869140625,36.865065090683665,-5.752951170215881,0.11092080690445982,55
1764974032.7798843,324,1.58203125,36.72226328362473,-6.04294208969214,-0.03188100015447759,53
1764974032.8810809,336,1.640625,36.72859124724063,-2.5630510559770334,-0.025553036538575213,51
1764974032.9826608,325,1.5869140625,36.809953694625406,-5.752951170215881,0.0558094108462015,52
1764974033.0846348,332,1.62109375,36.760077593660334,-3.7230147338820694,0.005933309881129389,53
1764974033.185998,341,1.6650390625,36.71411939659304,-1.1130964585957395,-0.04002488718616348,54
1764974033.2877219,340,1.66015625,36.714925928079055,-1.4030873780719983,-0.0392183557001502,54
1764974033.3892903,324,1.58203125,36.85099250854724,-6.04294208969214,0.09684822476803845,54
1764974033.4908051,337,1.6455078125,36.841283811857906,-2.2730601365007748,0.08713952807870129,54
1764974033.591973,326,1.591796875,36.880162177254,-5.462960250739622,0.12601789347479553,52
1764974033.693068,337,1.6455078125,36.843548899031866,-2.2730601365007748,0.0894046152526613,50
1764974033.7946153,337,1.6455078125,36.60279650296929,-2.2730601365007748,-0.15134778080991396,49
1764974033.8963432,329,1.6064453125,36.860547012833905,-4.592987492310845,0.10640272905470027,49
1764974033.997429,335,1.6357421875,36.877298004270145,-2.8530419754532925,0.12315372049094009,49
1764974034.0986557,326,1.591796875,36.940032644649236,-5.462960250739622,0.18588836087003102,51
1764974034.1999297,324,1.58203125,36.68350172872443,-6.04294208969214,-0.0706425550547749,54
1764974034.3009546,332,1.62109375,36.77567636802976,-3.7230147338820694,0.021532084250551975,58
1764974034.4020665,333,1.6259765625,36.90115025768319,-3.4330238144058103,0.14700597390398684,60
1764974034.5030484,328,1.6015625,36.858454691919924,-4.8829784117871045,0.10431040814071935,62
1764974034.6040268,333,1.6259765625,36.63436565735739,-3.4330238144058103,-0.11977862642181236,64
1764974034.7050111,336,1.640625,36.665910964106864,-2.5630510559770334,-0.08823331967234083,64
1764974034.806134,325,1.5869140625,36.79484144416973,-5.752951170215881,0.04069716039052196,64
1764974034.907177,324,1.58203125,36.785108103821514,-6.04294208969214,0.030963820042309464,64
1764974035.0085437,330,1.611328125,36.85776982802285,-4.302996572834586,0.10362554424364845,65
1764974035.1098092,339,1.6552734375,36.75269337179444,-1.6930782975482572,-0.0014509119847616603,65
1764974035.2105377,338,1.650390625,36.81596360636871,-1.983069217024516,0.06181932258950695,65
1764974035.3114514,322,1.572265625,36.905676379119264,-6.622923928644657,0.15153209534005896,64
1764974035.413013,332,1.62109375,36.895771460539365,-3.7230147338820694,0.14162717676016,64
1764974035.514321,325,1.5869140625,36.70263146653637,-5.752951170215881,-0.05151281724283763,63
1764974035.615792,325,1.5869140625,36.849321781856,-5.752951170215881,0.09517749807679365,63
1764974035.717487,322,1.572265625,36.56099980335937,-6.622923928644657,-0.19314448041983212,62
1764974035.818431,336,1.640625,36.88890974861385,-2.5630510559770334,0.13476546483464347,62
1764974035.9194179,324,1.58203125,36.610416438306956,-6.04294208969214,-0.14372784547224882,63
1764974036.020091,325,1.5869140625,36.72348458466734,-5.752951170215881,-0.03065969911186528,63
1764974036.1208823,322,1.572265625,36.884044338396656,-6.622923928644657,0.12990005461745113,63
1764974036.222233,339,1.6552734375,36.666127120177585,-1.6930782975482572,-0.08801716360162004,64
1764974036.32327,339,1.6552734375,36.68925250691682,-1.6930782975482572,-0.06489177686238179,64
1764974036.4242737,336,1.640625,36.78067304944649,-2.5630510559770334,0.02652876566728679,64
1764974036.5254505,331,1.6162109375,36.75268855454991,-4.013005653358328,-0.0014557292292920465,64
1764974036.6265268,336,1.640625,36.67765432621245,-2.5630510559770334,-0.07648995756675703,64
1764974036.727847,323,1.5771484375,36.58766896891857,-6.332933009168398,-0.16647531486063372,65
1764974036.8292322,328,1.6015625,36.94784421485628,-4.8829784117871045,0.19369993107707728,64
1764974036.9308252,321,1.5673828125,36.56712897576144,-6.9129148481209155,-0.187015308017763,64
1764974037.0328515,335,1.6357421875,36.732105436303215,-2.8530419754532925,-0.022038847475990053,63
1764974037.134576,335,1.6357421875,36.66338821865756,-2.8530419754532925,-0.09075606512164569,63
1764974037.2359326,328,1.6015625,36.674527513560314,-4.8829784117871045,-0.07961677021889102,62
1764974037.3370006,331,1.6162109375,36.92167434796231,-4.013005653358328,0.16753006418310434,63
1764974037.438238,326,1.591796875,36.93345104877197,-5.462960250739622,0.17930676499276643,63
1764974037.5389948,324,1.58203125,36.5918683000389,-6.04294208969214,-0.16227598374030805,62
1764974037.6402192,321,1.5673828125,36.78271308782899,-6.9129148481209155,0.028568804049783125,62
1764974037.741008,321,1.5673828125,36.91135017792013,-6.9129148481209155,0.15720589414092245,61
1764974037.8423762,340,1.66015625,36.822755362738214,-1.4030873780719983,0.06861107895900886,60
1764974037.943374,337,1.6455078125,36.83666147856587,-2.2730601365007748,0.08251719478666786,60
1764974038.0445747,335,1.6357421875,36.95501857565742,-2.8530419754532925,0.2008742918782147,60
1764974038.1456745,335,1.6357421875,36.86801501979151,-2.8530419754532925,0.11387073601230213,61
1764974038.247111,339,1.6552734375,36.93460465131955,-1.6930782975482572,0.18046036754034844,61
1764974038.3485603,322,1.572265625,36.9235711648461,-6.622923928644657,0.1694268810668973,61
1764974038.4497528,337,1.6455078125,36.802090591892735,-2.2730601365007748,0.04794630811353073,61
1764974038.5508249,326,1.591796875,36.9354383385121,-5.462960250739622,0.18129405473289495,61
1764974038.6518738,325,1.5869140625,36.70080139590163,-5.752951170215881,-0.05334288787757657,62
1764974038.7529802,336,1.640625,36.6786789257211,-2.5630510559770334,-0.0754653580581035,63
1764974038.854476,321,1.5673828125,36.61889044666935,-6.9129148481209155,-0.1352538371098575,64
1764974038.9557889,322,1.572265625,36.913454317947824,-6.622923928644657,0.15931003416861955,65
1764974039.0570576,322,1.572265625,36.62825254978318,-6.622923928644657,-0.1258917339960277,65
1764974039.1586,338,1.650390625,36.76883714425758,-1.983069217024516,0.014692860478376701,64
1764974039.2602444,338,1.650390625,36.85650154058063,-1.983069217024516,0.10235725680142593,63
1764974039.3616126,326,1.591796875,36.704594647911975,-5.462960250739622,-0.049549635867229824,63
1764974039.4631085,332,1.62109375,36.75671254400715,-3.7230147338820694,0.0025682602279459843,62
1764974039.5650682,335,1.6357421875,36.937623512199394,-2.8530419754532925,0.1834792284201896,62
1764974039.666834,326,1.591796875,36.61142381695854,-5.462960250739622,-0.14272046682066275,63
1764974039.7681587,326,1.591796875,36.6515029407162,-5.462960250739622,-0.10264134306300576,64
1764974039.8692257,335,1.6357421875,36.605431442776485,-2.8530419754532925,-0.14871284100271964,65
1764974039.970369,327,1.5966796875,36.64511260912623,-5.172969331263364,-0.10903167465297514,66
1764974040.07176,332,1.62109375,36.742087517366095,-3.7230147338820694,-0.012056766413110154,67
1764974040.173013,326,1.591796875,36.85782248674066,-5.462960250739622,0.10367820296145425,68
1764974040.2747707,332,1.62109375,36.95786337895734,-3.7230147338820694,0.2037190951781369,69
1764974040.376288,330,1.611328125,36.92549069530584,-4.302996572834586,0.17134641152663477,69
1764974040.4777937,325,1.5869140625,36.917625047916275,-5.752951170215881,0.1634807641370699,69
1764974040.5793588,321,1.5673828125,36.850262345002164,-6.9129148481209155,0.09611806122295974,69
1764974040.6815696,330,1.611328125,36.884771722814975,-4.302996572834586,0.13062743903577,69
1764974040.7830396,324,1.58203125,36.75977693674556,-6.04294208969214,0.005632652966355067,69
1764974040.884694,333,1.6259765625,36.74278284196628,-3.4330238144058103,-0.01136144181292309,69
1764974040.9861581,320,1.5625,36.60763476003557,-7.202905767597175,-0.14650952374363158,69
1764974041.087371,330,1.611328125,36.76718127457779,-4.302996572834586,0.013036990798582337,69
1764974041.1883433,329,1.6064453125,36.940595992938476,-4.592987492310845,0.18645170915927167,70
1764974041.2893057,325,1.5869140625,36.894009266083984,-5.752951170215881,0.13986498230477906,70
1764974041.3905363,335,1.6357421875,36.77757393436044,-2.8530419754532925,0.02342965058123525,71
1764974041.4917312,329,1.6064453125,36.869863354168466,-4.592987492310845,0.11571907038926099,70
1764974041.5933518,333,1.6259765625,36.6201175741171,-3.4330238144058103,-0.13402670966210195,70
1764974041.6945379,339,1.6552734375,36.82137829424743,-1.6930782975482572,0.0672340104682263,68
1764974041.796103,323,1.5771484375,36.806579699516604,-6.332933009168398,0.05243541573739918,68
1764974041.8973935,335,1.6357421875,36.781767338787326,-2.8530419754532925,0.0276230550081209,68
1764974041.998625,326,1.591796875,36.8429021808144,-5.462960250739622,0.08875789703519388,69
1764974042.099521,332,1.62109375,36.7577779285261,-3.7230147338820694,0.0036336447468983124,70
1764974042.2004673,333,1.6259765625,36.651320042312534,-3.4330238144058103,-0.10282424146667068,69
1764974042.3019187,332,1.62109375,36.83327271356788,-3.7230147338820694,0.07912842978867474,69
1764974042.4034042,340,1.66015625,36.59943834199458,-1.4030873780719983,-0.15470594178462704,68
1764974042.5046701,322,1.572265625,36.590144979175555,-6.622923928644657,-0.16399930460364942,68
1764974042.6059375,333,1.6259765625,36.57137890887612,-3.4330238144058103,-0.18276537490308442,69
1764974042.7072043,321,1.5673828125,36.58776927306507,-6.9129148481209155,-0.16637501071413396,70
1764974042.8081448,325,1.5869140625,36.85322906839583,-5.752951170215881,0.09908478461662185,70
1764974042.9090235,325,1.5869140625,36.606511268449154,-5.752951170215881,-0.1476330153300509,72
1764974043.0101302,320,1.5625,36.68298836286296,-7.202905767597175,-0.07115592091624734,72
1764974043.1114054,328,1.6015625,36.94029323602079,-4.8829784117871045,0.186148952241588,72
1764974043.2128775,325,1.5869140625,36.652315335439965,-5.752951170215881,-0.10182894833923939,73
1764974043.3140619,323,1.5771484375,36.57485986826683,-6.332933009168398,-0.1792844155123774,74
1764974043.4149253,336,1.640625,36.76345021644449,-2.5630510559770334,0.0093059326652849,75
1764974043.5161107,322,1.572265625,36.657838491731326,-6.622923928644657,-0.09630579204787892,75
1764974043.6174188,323,1.5771484375,36.71868561284501,-6.332933009168398,-0.0354586709341973,76
1764974043.7184541,327,1.5966796875,36.580746892204,-5.172969331263364,-0.1733973915752074,74
1764974043.8197696,323,1.5771484375,36.63695028130835,-6.332933009168398,-0.11719400247085332,73
1764974043.9206922,340,1.66015625,36.7197714180281,-1.4030873780719983,-0.03437286575110221,72
1764974044.021805,321,1.5673828125,36.61905350526673,-6.9129148481209155,-0.13509077851247753,71
1764974044.1230016,338,1.650390625,36.85700789532785,-1.983069217024516,0.1028636115486421,70
1764974044.2246435,323,1.5771484375,36.62264108081035,-6.332933009168398,-0.1315032029688581,70
1764974044.3260207,323,1.5771484375,36.65007793032995,-6.332933009168398,-0.10406635344925519,70
1764974044.4283273,328,1.6015625,36.65909770959875,-4.8829784117871045,-0.09504657418045781,69
1764974044.529667,328,1.6015625,36.94542279174237,-4.8829784117871045,0.19127850796316181,69
1764974044.631445,339,1.6552734375,36.598771009286246,-1.6930782975482572,-0.155373274492959,69
1764974044.7326818,339,1.6552734375,36.783049578462254,-1.6930782975482572,0.028905294683049476,68
1764974044.8340456,325,1.5869140625,36.66668447249157,-5.752951170215881,-0.08745981128763702,69
1764974044.9350438,327,1.5966796875,36.689391758620296,-5.172969331263364,-0.06475252515890872,69
1764974045.0361037,322,1.572265625,36.64478361118561,-6.622923928644657,-0.10936067259359561,69
1764974045.1371548,335,1.6357421875,36.846614325037116,-2.8530419754532925,0.09247004125791136,70
1764974045.2385755,325,1.5869140625,36.694699321855715,-5.752951170215881,-0.05944496192348936,71
1764974045.33981,334,1.630859375,36.66495608264593,-3.1430328949295516,-0.08918820113327541,71
1764974045.4412348,326,1.591796875,36.562963959788235,-5.462960250739622,-0.19118032399097018,72
1764974045.5433147,335,1.6357421875,36.89667432669205,-2.8530419754532925,0.14253004291284554,72
1764974045.6462066,341,1.6650390625,36.66601372380407,-1.1130964585957395,-0.0881305599751343,72
1764974045.7479284,323,1.5771484375,36.87532568927447,-6.332933009168398,0.12118140549526402,72
1764974045.8491476,322,1.572265625,36.60088550641865,-6.622923928644657,-0.1532587773605556,72
1764974045.9507604,337,1.6455078125,36.71733949060597,-2.2730601365007748,-0.03680479317323204,71
1764974046.052212,329,1.6064453125,36.84687032518654,-4.592987492310845,0.09272604140733876,71
1764974046.1545062,328,1.6015625,36.78321128512151,-4.8829784117871045,0.029067001342305332,70
1764974046.256397,331,1.6162109375,36.652496917365376,-4.013005653358328,-0.10164736641382888,70
1764974046.3579879,333,1.6259765625,36.78838149508223,-3.4330238144058103,0.034237211303022264,69
1764974046.4601755,332,1.62109375,36.76377270002189,-3.7230147338820694,0.009628416242684068,68
1764974046.5627337,324,1.58203125,36.82812536324005,-6.04294208969214,0.07398107946084309,68
1764974046.664129,341,1.6650390625,36.940369366767364,-1.1130964585957395,0.18622508298815887,68
1764974046.7651608,336,1.640625,36.635185576862995,-2.5630510559770334,-0.11895870691621013,68
1764974046.8666835,328,1.6015625,36.959595732636615,-4.8829784117871045,0.20545144885740996,69
1764974046.968396,328,1.6015625,36.57855025066397,-4.8829784117871045,-0.1755940331152317,69
1764974047.0697567,326,1.591796875,36.69081407041616,-5.462960250739622,-0.06333021336304512,69
1764974047.1709785,332,1.62109375,36.77745431719136,-3.7230147338820694,0.02331003341215876,69
1764974047.272555,337,1.6455078125,36.571888151760696,-2.2730601365007748,-0.18225613201850877,69
1764974047.3740883,333,1.6259765625,36.56867009256647,-3.4330238144058103,-0.18547419121273379,69
1764974047.4756787,329,1.6064453125,36.92741382514303,-4.592987492310845,0.17326954136382255,69
1764974047.576999,328,1.6015625,36.56721318213762,-4.8829784117871045,-0.18693110164158355,70
1764974047.6781828,333,1.6259765625,36.92398012329762,-3.4330238144058103,0.16983583951841297,70
1764974047.77931,334,1.630859375,36.749794477751934,-3.1430328949295516,-0.004349806027271086,70
1764974047.881629,339,1.6552734375,36.61482050801611,-1.6930782975482572,-0.13932377576309563,70
1764974047.9832706,321,1.5673828125,36.92992305654475,-6.9129148481209155,0.17577877276554688,69
1764974048.0842106,341,1.6650390625,36.83597989223232,-1.1130964585957395,0.08183560845311177,69
1764974048.1852338,321,1.5673828125,36.93783016539328,-6.9129148481209155,0.18368588161407473,69
1764974048.2864385,324,1.58203125,36.608035573935624,-6.04294208969214,-0.14610870984358115,68
1764974048.3886342,322,1.572265625,36.63336692962125,-6.622923928644657,-0.12077735415795132,69
1764974048.489738,325,1.5869140625,36.69427558278121,-5.752951170215881,-0.05986870099799546,68
1764974048.591407,324,1.58203125,36.753912409463204,-6.04294208969214,-0.0002318743160003578,68
1764974048.6930995,337,1.6455078125,36.80366143151791,-2.2730601365007748,0.04951714773870464,68
1764974048.79417,332,1.62109375,36.91793163544748,-3.7230147338820694,0.16378735166827596,68
1764974048.8953102,334,1.630859375,36.719815078392855,-3.1430328949295516,-0.034329205386349315,68
1764974048.9964657,336,1.640625,36.950222786337285,-2.5630510559770334,0.19607850255808046,69
1764974049.097922,340,1.66015625,36.66966474361138,-1.4030873780719983,-0.08447954016782688,69
1764974049.199276,324,1.58203125,36.583215359229754,-6.04294208969214,-0.1709289245494503,68
1764974049.300624,337,1.6455078125,36.59937380574211,-2.2730601365007748,-0.15477047803709354,67
1764974049.4017751,323,1.5771484375,36.668856885955265,-6.332933009168398,-0.08528739782394013,66
1764974049.5030978,326,1.591796875,36.86667074873018,-5.462960250739622,0.11252646495097451,65
1764974049.604147,337,1.6455078125,36.929571933222434,-2.2730601365007748,0.17542764944322897,64
1764974049.7054055,332,1.62109375,36.59250025340092,-3.7230147338820694,-0.1616440303782838,64
1764974049.8070748,331,1.6162109375,36.70683155606187,-4.013005653358328,-0.0473127277173333,65
1764974049.9089751,325,1.5869140625,36.63590265244543,-5.752951170215881,-0.11824163133377397,65
1764974050.0111713,328,1.6015625,36.66502317267272,-4.8829784117871045,-0.08912111110648624,66
1764974050.112572,330,1.611328125,36.715697153886246,-4.302996572834586,-0.03844712989295829,66
1764974050.2142248,338,1.650390625,36.63219193644936,-1.983069217024516,-0.12195234732984517,66
1764974050.3154898,327,1.5966796875,36.645444337131316,-5.172969331263364,-0.10869994664788862,66
1764974050.4171731,328,1.6015625,36.90951415597882,-4.8829784117871045,0.15536987219961418,66
1764974050.5186114,336,1.640625,36.830493340357485,-2.5630510559770334,0.07634905657828028,65
1764974050.6199813,340,1.66015625,36.747647605922644,-1.4030873780719983,-0.0064966778565604955,65
1764974050.7214901,326,1.591796875,36.7255797392362,-5.462960250739622,-0.028564544543002057,64
1764974050.822826,327,1.5966796875,36.829737594675755,-5.172969331263364,0.07559331089655075,64
1764974050.9242933,334,1.630859375,36.71615621620194,-3.1430328949295516,-0.037988067577266804,63
1764974051.025598,328,1.6015625,36.56801321604228,-4.8829784117871045,-0.18613106773692323,62
1764974051.12665,327,1.5966796875,36.89398387529592,-5.172969331263364,0.13983959151671854,61
1764974051.228149,324,1.58203125,36.67021291072318,-6.04294208969214,-0.08393137305602494,61
1764974051.3295028,329,1.6064453125,36.77777874967813,-4.592987492310845,0.023634465898922485,61
1764974051.4312482,327,1.5966796875,36.57749410051917,-5.172969331263364,-0.1766501832600369,61
1764974051.5326746,330,1.611328125,36.60344000184336,-4.302996572834586,-0.15070428193584462,61
1764974051.634725,325,1.5869140625,36.91857388445974,-5.752951170215881,0.1644296006805348,61
1764974051.736437,337,1.6455078125,36.86414768509636,-2.2730601365007748,0.11000340131715802,60
1764974051.8376024,327,1.5966796875,36.74136636481445,-5.172969331263364,-0.012777918964751223,60
1764974051.9399884,334,1.630859375,36.65327661781345,-3.1430328949295516,-0.10086766596575814,59
1764974052.0419137,331,1.6162109375,36.94753532046348,-4.013005653358328,0.19339103668427526,59
1764974052.1433306,330,1.611328125,36.575764819924245,-4.302996572834586,-0.1783794638549594,58
1764974052.244353,326,1.591796875,36.8021747737166,-5.462960250739622,0.048030489937396226,58
1764974052.3463593,329,1.6064453125,36.61786143359342,-4.592987492310845,-0.13628285018578623,58
1764974052.4478996,338,1.650390625,36.87774655303351,-1.983069217024516,0.12360226925430595,58
1764974052.5494213,332,1.62109375,36.86897506563412,-3.7230147338820694,0.1148307818549128,59
1764974052.6505566,322,1.572265625,36.860686128282666,-6.622923928644657,0.10654184450346094,60
1764974052.751736,321,1.5673828125,36.6718680968471,-6.9129148481209155,-0.08227618693210559,61
1764974052.8530092,325,1.5869140625,36.86661498504632,-5.752951170215881,0.11247070126711378,62
1764974052.954994,338,1.650390625,36.71559605914998,-1.983069217024516,-0.03854822462922414,63
1764974053.056879,321,1.5673828125,36.806184919861515,-6.9129148481209155,0.05204063608231024,64
1764974053.1585088,327,1.5966796875,36.67818875926187,-5.172969331263364,-0.07595552451733312,64
1764974053.2598855,329,1.6064453125,36.90993081722323,-4.592987492310845,0.15578653344402227,64
1764974053.3608425,329,1.6064453125,36.66607858386542,-4.592987492310845,-0.0880656999137841,64
1764974053.4623828,335,1.6357421875,36.8414354751689,-2.8530419754532925,0.08729119138969565,64
1764974053.5637784,320,1.5625,36.866077364954826,-7.202905767597175,0.1119330811756214,64
1764974053.664861,328,1.6015625,36.866102960514816,-4.8829784117871045,0.1119586767356111,64
1764974053.7664404,333,1.6259765625,36.87642039742671,-3.4330238144058103,0.12227611364750857,64
1764974053.8682864,325,1.5869140625,36.811006129594965,-5.752951170215881,0.05686184581576015,63
1764974053.9697995,323,1.5771484375,36.80077933771592,-6.332933009168398,0.04663505393671841,63
1764974054.0710738,330,1.611328125,36.80118502100253,-4.302996572834586,0.0470407372233268,62
1764974054.1728978,326,1.591796875,36.77951733268939,-5.462960250739622,0.02537304891018266,61
1764974054.2743747,322,1.572265625,36.83378141542887,-6.622923928644657,0.0796371316496618,61
1764974054.375702,336,1.640625,36.66884926927455,-2.5630510559770334,-0.08529501450465204,60
1764974054.477172,328,1.6015625,36.630552474307684,-4.8829784117871045,-0.12359180947152026,60
1764974054.5788398,337,1.6455078125,36.58825779048589,-2.2730601365007748,-0.16588649329331417,60
1764974054.6800368,321,1.5673828125,36.77912803360534,-6.9129148481209155,0.02498374982613427,61
1764974054.781431,335,1.6357421875,36.85989338131964,-2.8530419754532925,0.10574909754043205,61
1764974054.8827443,321,1.5673828125,36.725022836963866,-6.9129148481209155,-0.02912144681533846,61
1764974054.984111,333,1.6259765625,36.624430037265455,-3.4330238144058103,-0.12971424651374974,61
1764974055.0853984,328,1.6015625,36.57195089798092,-4.8829784117871045,-0.1821933857982856,61
1764974055.1871405,337,1.6455078125,36.8429589545384,-2.2730601365007748,0.08881467075919858,61
1764974055.2893596,321,1.5673828125,36.76218128284882,-6.9129148481209155,0.008036999069616968,61
1764974055.3907928,335,1.6357421875,36.68619121106079,-2.8530419754532925,-0.06795307271841722,62
1764974055.4924324,322,1.572265625,36.897103842579824,-6.622923928644657,0.1429595588006194,62
1764974055.5939896,325,1.5869140625,36.87465068593513,-5.752951170215881,0.12050640215592523,63
1764974055.696268,326,1.591796875,36.86653936327223,-5.462960250739622,0.11239507949302663,64
1764974055.798105,323,1.5771484375,36.64576036373906,-6.332933009168398,-0.10838392004014707,64
1764974055.8992524,329,1.6064453125,36.93798986523729,-4.592987492310845,0.18384558145808683,65
1764974056.0006437,337,1.6455078125,36.677022488988335,-2.2730601365007748,-0.07712179479086956,65
1764974056.1019785,326,1.591796875,36.583124923735554,-5.462960250739622,-0.17101936004365115,65
1764974056.203639,329,1.6064453125,36.944832803418805,-4.592987492310845,0.19068851963960043,65
1764974056.3056273,340,1.66015625,36.958640482402515,-1.4030873780719983,0.20449619862331048,65
1764974056.4074793,334,1.630859375,36.92575832315891,-3.1430328949295516,0.17161403937970476,64
1764974056.5120215,322,1.572265625,36.5948843881028,-6.622923928644657,-0.15925989567640642,64
1764974056.613322,333,1.6259765625,36.72396814755289,-3.4330238144058103,-0.03017613622631643,63
1764974056.7144601,332,1.62109375,36.77234130160406,-3.7230147338820694,0.01819701782485339,63
1764974056.8156917,326,1.591796875,36.669728121228644,-5.462960250739622,-0.08441616255056061,62
1764974056.9171176,327,1.5966796875,36.92693909607302,-5.172969331263364,0.17279481229381588,61
1764974057.018587,328,1.6015625,36.6105176427576,-4.8829784117871045,-0.14362664102160494,61
1764974057.1203372,336,1.640625,36.701081053131645,-2.5630510559770334,-0.05306323064755958,60
1764974057.2215781,332,1.62109375,36.915781770704704,-3.7230147338820694,0.16163748692549973,60
1764974057.3227136,330,1.611328125,36.8139991714498,-4.302996572834586,0.05985488767059621,60
1764974057.423774,336,1.640625,36.764097210761456,-2.5630510559770334,0.009952926982251142,60
1764974057.5246904,340,1.66015625,36.751413141453526,-1.4030873780719983,-0.002731142325679059,60
1764974057.626118,330,1.611328125,36.650480754609774,-4.302996572834586,-0.103663529169431,60
1764974057.7274861,331,1.6162109375,36.919369433638956,-4.013005653358328,0.1652251498597508,59
1764974057.829133,333,1.6259765625,36.692550988006346,-3.4330238144058103,-0.06159329577285888,59
1764974057.9303105,338,1.650390625,36.93302151953055,-1.983069217024516,0.17887723575134373,58
1764974058.0314894,324,1.58203125,36.566126559147484,-6.04294208969214,-0.18801772463172028,58
1764974058.13266,340,1.66015625,36.81622919391838,-1.4030873780719983,0.06208491013917694,58
1764974058.235337,335,1.6357421875,36.870627745925866,-2.8530419754532925,0.11648346214666105,58
1764974058.337211,327,1.5966796875,36.7917637109924,-5.172969331263364,0.037619427213194,59
1764974058.4387255,326,1.591796875,36.74023171424674,-5.462960250739622,-0.013912569532465113,59
1764974058.539876,330,1.611328125,36.81459106013886,-4.302996572834586,0.060446776359654564,60
1764974058.641102,333,1.6259765625,36.85026429149066,-3.4330238144058103,0.09612000771145546,60
1764974058.7426856,339,1.6552734375,36.9025918929665,-1.6930782975482572,0.1484476091872935,60
1764974058.8441882,337,1.6455078125,36.915900361170806,-2.2730601365007748,0.16175607739160114,61
1764974058.9457405,339,1.6552734375,36.71288088130551,-1.6930782975482572,-0.041263402473695976,61
1764974059.047141,330,1.611328125,36.7217479038759,-4.302996572834586,-0.032396379903303796,62
1764974059.1487381,321,1.5673828125,36.61941728059749,-6.9129148481209155,-0.13472700318171604,62
1764974059.25025,335,1.6357421875,36.699261459611904,-2.8530419754532925,-0.054882824167300726,63
1764974059.3519676,329,1.6064453125,36.907695570426256,-4.592987492310845,0.1535512866470512,64
1764974059.4535017,324,1.58203125,36.764243940323894,-6.04294208969214,0.01009965654468914,65
1764974059.5545769,323,1.5771484375,36.90008368864706,-6.332933009168398,0.14593940486785328,65
1764974059.655619,330,1.611328125,36.846955950780355,-4.302996572834586,0.09281166700115051,66
1764974059.7574716,331,1.6162109375,36.91459309641653,-4.013005653358328,0.1604488126373269,67
1764974059.8586557,320,1.5625,36.928464636162275,-7.202905767597175,0.1743203523830701,67
1764974059.960072,330,1.611328125,36.587638584952046,-4.302996572834586,-0.1665056988271587,67
1764974060.0611782,323,1.5771484375,36.62662801121947,-6.332933009168398,-0.1275162725597312,67
1764974060.1633554,332,1.62109375,36.94388680967833,-3.7230147338820694,0.18974252589912766,67
1764974060.2645018,335,1.6357421875,36.732145752530705,-2.8530419754532925,-0.021998531248499376,67
1764974060.3657598,327,1.5966796875,36.62947889569986,-5.172969331263364,-0.12466538807934313,66
1764974060.4670784,336,1.640625,36.918325510961736,-2.5630510559770334,0.16418122718253159,65
1764974060.5698006,325,1.5869140625,36.77977627609287,-5.752951170215881,0.025631992313662977,64
1764974060.6710172,331,1.6162109375,36.768878331181185,-4.013005653358328,0.014734047401979922,63
1764974060.7722404,322,1.572265625,36.82175105502319,-6.622923928644657,0.0676067712439874,63
1764974060.8732045,324,1.58203125,36.867052006344444,-6.04294208969214,0.11290772256523951,63
1764974060.9752636,336,1.640625,36.69326423577202,-2.5630510559770334,-0.06088004800718494,63
1764974061.076753,335,1.6357421875,36.929666400171705,-2.8530419754532925,0.17552211639250004,63
1764974061.1788251,336,1.640625,36.61929717918684,-2.5630510559770334,-0.13484710459236737,63
1764974061.2798023,333,1.6259765625,36.70510647796686,-3.4330238144058103,-0.049037805812346846,64
1764974061.3809392,338,1.650390625,36.77995613466346,-1.983069217024516,0.025811850884252863,64
1764974061.4820123,327,1.5966796875,36.70555281906072,-5.172969331263364,-0.04859146471848419,64
1764974061.5838952,329,1.6064453125,36.91832761200482,-4.592987492310845,0.16418332822561865,64
1764974061.6856768,321,1.5673828125,36.59042556625055,-6.9129148481209155,-0.16371871752865275,64
1764974061.7870808,327,1.5966796875,36.6049095220181,-5.172969331263364,-0.1492347617611074,63
1764974061.8883889,322,1.572265625,36.65307891211786,-6.622923928644657,-0.10106537166134189,62
1764974061.9896307,326,1.591796875,36.87235757403076,-5.462960250739622,0.11821329025155336,62
1764974062.0907052,327,1.5966796875,36.619630315308825,-5.172969331263364,-0.13451396847037955,63
1764974062.192377,335,1.6357421875,36.90667076214485,-2.8530419754532925,0.15252647836564392,63
1764974062.2938743,334,1.630859375,36.76858959504626,-3.1430328949295516,0.014445311267053285,64
1764974062.3950832,323,1.5771484375,36.68810722191511,-6.332933009168398,-0.06603706186409397,65
1764974062.4962533,327,1.5966796875,36.87485887547382,-5.172969331263364,0.12071459169461463,65
1764974062.597814,325,1.5869140625,36.84753604487231,-5.752951170215881,0.09339176109310188,65
1764974062.6993,337,1.6455078125,36.77529694777939,-2.2730601365007748,0.021152664000183563,65
1764974062.801063,334,1.630859375,36.908052438809335,-3.1430328949295516,0.15390815503013044,65
1764974062.9025202,322,1.572265625,36.777688675149086,-6.622923928644657,0.023544391369881623,64
1764974063.004107,326,1.591796875,36.94489161583155,-5.462960250739622,0.1907473320523465,63
1764974063.105846,334,1.630859375,36.644198845251715,-3.1430328949295516,-0.10994543852748961,61
1764974063.2081525,335,1.6357421875,36.93923772487094,-2.8530419754532925,0.18509344109173753,60
1764974063.3092577,338,1.650390625,36.88747064966554,-1.983069217024516,0.13332636588633306,59
1764974063.4103503,325,1.5869140625,36.61722398247742,-5.752951170215881,-0.13692030130178523,59
1764974063.5115814,334,1.630859375,36.688664789080285,-3.1430328949295516,-0.0654794946989199,60
1764974063.6130133,323,1.5771484375,36.72613574138731,-6.332933009168398,-0.028008542391894764,61
1764974063.7140749,339,1.6552734375,36.58052350034189,-1.6930782975482572,-0.17362078343731469,62
1764974063.815469,332,1.62109375,36.845434465123574,-3.7230147338820694,0.09129018134436961,62
1764974063.918961,331,1.6162109375,36.799873977869645,-4.013005653358328,0.04572969409043992,62
1764974064.0203893,329,1.6064453125,36.897065678669655,-4.592987492310845,0.14292139489045042,61
1764974064.1214087,335,1.6357421875,36.68316772951618,-2.8530419754532925,-0.07097655426302651,60
1764974064.2227824,330,1.611328125,36.8763420146593,-4.302996572834586,0.12219773088009589,60
1764974064.3243222,325,1.5869140625,36.72145194827019,-5.752951170215881,-0.03269233550901163,60
1764974064.425453,326,1.591796875,36.584023140826886,-5.462960250739622,-0.1701211429523184,60
1764974064.5267437,321,1.5673828125,36.77959549942182,-6.9129148481209155,0.025451215642618763,60
1764974064.6278772,333,1.6259765625,36.56905521211001,-3.4330238144058103,-0.18508907166919641,59
1764974064.72981,321,1.5673828125,36.77624289685804,-6.9129148481209155,0.022098613078831875,59
1764974064.8313332,337,1.6455078125,36.89827222185793,-2.2730601365007748,0.14412793807872504,58
1764974064.9333658,321,1.5673828125,36.56529739896596,-6.9129148481209155,-0.18884688481324474,58
1764974065.035051,337,1.6455078125,36.88866163254089,-2.2730601365007748,0.1345173487616833,57
1764974065.1364756,324,1.58203125,36.590928757273126,-6.04294208969214,-0.16321552650607885,57
1764974065.2376077,326,1.591796875,36.86512878920443,-5.462960250739622,0.11098450542522187,57
1764974065.339211,328,1.6015625,36.65117716168185,-4.8829784117871045,-0.10296712209735404,57
1764974065.4407618,325,1.5869140625,36.687654133387255,-5.752951170215881,-0.0664901503919495,56
1764974065.5421975,336,1.640625,36.59401300115829,-2.5630510559770334,-0.1601312826209167,56
1764974065.643403,329,1.6064453125,36.62304713282435,-4.592987492310845,-0.13109715095485797,57
1764974065.7447584,321,1.5673828125,36.7635396154206,-6.9129148481209155,0.009395331641393057,57
1764974065.846109,337,1.6455078125,36.95521447827003,-2.2730601365007748,0.20107019449082486,57
1764974065.9478834,320,1.5625,36.66305256469276,-7.202905767597175,-0.09109171908644242,58
1764974066.0508642,329,1.6064453125,36.58389770547382,-4.592987492310845,-0.17024657830538814,58
1764974066.152219,335,1.6357421875,36.57226817560121,-2.8530419754532925,-0.18187610817799538,58
1764974066.2532787,327,1.5966796875,36.761311385646735,-5.172969331263364,0.007167101867530334,57
1764974066.354791,339,1.6552734375,36.814037599027564,-1.6930782975482572,0.05989331524835961,57
1764974066.4561322,326,1.591796875,36.60256992282852,-5.462960250739622,-0.15157436095068277,58
1764974066.5580795,328,1.6015625,36.692747577438645,-4.8829784117871045,-0.061396706340559604,59
1764974066.6593952,324,1.58203125,36.90853918240104,-6.04294208969214,0.1543948986218382,59
1764974066.7606072,333,1.6259765625,36.77543463223259,-3.4330238144058103,0.021290348453383956,58
1764974066.8620005,338,1.650390625,36.881890886247845,-1.983069217024516,0.12774660246864045,58
1764974066.963748,323,1.5771484375,36.5725274261414,-6.332933009168398,-0.1816168576378061,56
1764974067.0654967,337,1.6455078125,36.648913836993245,-2.2730601365007748,-0.10523044678595994,55
1764974067.1677175,333,1.6259765625,36.957187381607234,-3.4330238144058103,0.20304309782802932,56
1764974067.269254,341,1.6650390625,36.670569061021425,-1.1130964585957395,-0.08357522275777995,57
1764974067.3703287,335,1.6357421875,36.63407818629962,-2.8530419754532925,-0.12006609747958663,57
1764974067.4719574,333,1.6259765625,36.85976772682339,-3.4330238144058103,0.10562344304418758,57
1764974067.5738807,328,1.6015625,36.58097742234848,-4.8829784117871045,-0.17316686143072246,57
1764974067.675477,338,1.650390625,36.78122903091759,-1.983069217024516,0.02708474713838882,55
1764974067.77691,323,1.5771484375,36.81809581254571,-6.332933009168398,0.06395152876650201,54
1764974067.878258,340,1.66015625,36.643219263792,-1.4030873780719983,-0.1109250199872065,55
1764974067.9802256,335,1.6357421875,36.644667647070996,-2.8530419754532925,-0.10947663670820873,55
1764974068.0817626,332,1.62109375,36.587664237257854,-3.7230147338820694,-0.1664800465213503,55
1764974068.1830797,322,1.572265625,36.9472838471947,-6.622923928644657,0.19313956341549243,55
1764974068.2841477,322,1.572265625,36.805413373498695,-6.622923928644657,0.05126908971949007,55
1764974068.3852532,326,1.591796875,36.572727674449716,-5.462960250739622,-0.18141660932948867,54
1764974068.4865465,326,1.591796875,36.849681367969694,-5.462960250739622,0.09553708419048945,53
1764974068.5878613,334,1.630859375,36.91878344872512,-3.1430328949295516,0.16463916494591757,53
1764974068.6891046,340,1.66015625,36.93076284299828,-1.4030873780719983,0.17661855921907232,53
1764974068.7903738,328,1.6015625,36.72202916660995,-4.8829784117871045,-0.03211511716925486,55
1764974068.8918993,334,1.630859375,36.707379482987555,-3.1430328949295516,-0.04676480079164946,57
1764974068.9931202,341,1.6650390625,36.629822136774244,-1.1130964585957395,-0.12432214700496047,57
1764974069.0942743,326,1.591796875,36.69317547250877,-5.462960250739622,-0.06096881127043474,58
1764974069.196093,326,1.591796875,36.61520182085987,-5.462960250739622,-0.13894246291933143,59
1764974069.2978444,336,1.640625,36.688224513595955,-2.5630510559770334,-0.06591977018324968,59
1764974069.4001706,331,1.6162109375,36.95591837945011,-4.013005653358328,0.2017740956709062,59
1764974069.5017881,323,1.5771484375,36.65394018743333,-6.332933009168398,-0.10020409634587679,61
1764974069.60343,326,1.591796875,36.59241643044488,-5.462960250739622,-0.1617278533343267,62
1764974069.705029,336,1.640625,36.921793040999994,-2.5630510559770334,0.16764875722078898,64
1764974069.8065135,336,1.640625,36.781392073658054,-2.5630510559770334,0.02724778987884946,64
1764974069.9081416,320,1.5625,36.64940946251184,-7.202905767597175,-0.104734821267364,64
1764974070.0095723,328,1.6015625,36.66316086052716,-4.8829784117871045,-0.09098342325204811,64
1764974070.1137476,335,1.6357421875,36.902650457102375,-2.8530419754532925,0.1485061733231703,65
1764974070.2153652,321,1.5673828125,36.856830385141954,-6.9129148481209155,0.10268610136274958,65
1764974070.3170335,328,1.6015625,36.73306667682022,-4.8829784117871045,-0.021077606958982642,65
1764974070.4180956,340,1.66015625,36.635242604722706,-1.4030873780719983,-0.11890167905649918,65
1764974070.51935,333,1.6259765625,36.624979940053954,-3.4330238144058103,-0.12916434372525032,66
1764974070.6203237,330,1.611328125,36.6094613107229,-4.302996572834586,-0.1446829730563053,66
1764974070.7218394,327,1.5966796875,36.82086274730538,-5.172969331263364,0.06671846352617194,66
1764974070.823152,338,1.650390625,36.79378650366152,-1.983069217024516,0.03964221988231742,67
1764974070.9242203,339,1.6552734375,36.67027760776521,-1.6930782975482572,-0.08386667601399722,67
1764974071.0252285,325,1.5869140625,36.77470863139087,-5.752951170215881,0.0205643476116677,66
1764974071.126679,327,1.5966796875,36.93960970340657,-5.172969331263364,0.18546541962736285,64
1764974071.2280047,337,1.6455078125,36.911249639142724,-2.2730601365007748,0.15710535536351955,63
1764974071.3297112,326,1.591796875,36.61210287612619,-5.462960250739622,-0.14204140765301787,62
1764974071.431287,334,1.630859375,36.93730818881796,-3.1430328949295516,0.18316390503875368,63
1764974071.5329154,321,1.5673828125,36.60386091985729,-6.9129148481209155,-0.15028336392191477,65
1764974071.6339886,323,1.5771484375,36.64359195690752,-6.332933009168398,-0.1105523268716837,67
1764974071.735003,327,1.5966796875,36.913492032113055,-5.172969331263364,0.15934774833385035,69
1764974071.8362954,340,1.66015625,36.851644869234974,-1.4030873780719983,0.09750058545576934,71
1764974071.9377327,339,1.6552734375,36.727997118611924,-1.6930782975482572,-0.02614716516728066,71
1764974072.039663,328,1.6015625,36.60207451605382,-4.8829784117871045,-0.15206976772538638,71
1764974072.1409001,323,1.5771484375,36.60726113786076,-6.332933009168398,-0.1468831459184443,72
1764974072.2420669,324,1.58203125,36.81159714645008,-6.04294208969214,0.057452862670878346,72
1764974072.3442252,329,1.6064453125,36.7558695929358,-4.592987492310845,0.001725309156597632,72
1764974072.4464698,341,1.6650390625,36.758929390126724,-1.1130964585957395,0.0047851063475192745,73
1764974072.5480146,323,1.5771484375,36.93640731272879,-6.332933009168398,0.1822630289495848,73
1764974072.6501894,330,1.611328125,36.65457161561755,-4.302996572834586,-0.099572668161656,74
1764974072.7514396,329,1.6064453125,36.85777759857494,-4.592987492310845,0.10363331479573645,74
1764974072.85302,325,1.5869140625,36.66449400049188,-5.752951170215881,-0.08965028328732672,75
1764974072.9542892,324,1.58203125,36.85124478339043,-6.04294208969214,0.0971004996112228,76
1764974073.055675,340,1.66015625,36.758085369237364,-1.4030873780719983,0.003941085458158966,76
1764974073.1570659,327,1.5966796875,36.66542418707078,-5.172969331263364,-0.08872009670842118,77
1764974073.2591603,331,1.6162109375,36.84947730761777,-4.013005653358328,0.09533302383856324,77
1764974073.361217,325,1.5869140625,36.61006105572183,-5.752951170215881,-0.14408322805737583,77
1764974073.462471,320,1.5625,36.81902804602783,-7.202905767597175,0.06488376224862691,77
1764974073.5637887,321,1.5673828125,36.733677043773994,-6.9129148481209155,-0.020467240005210385,78
1764974073.6656659,330,1.611328125,36.62912814352738,-4.302996572834586,-0.12501614025182306,78
1764974073.7673943,325,1.5869140625,36.56687533956027,-5.752951170215881,-0.18726894421893547,78
1764974073.8688655,333,1.6259765625,36.87420724166984,-3.4330238144058103,0.1200629578906387,79
1764974073.9702106,325,1.5869140625,36.753103039119054,-5.752951170215881,-0.001041244660150653,80
1764974074.0715873,325,1.5869140625,36.86190213211832,-5.752951170215881,0.10775784833911217,80
1764974074.1729565,335,1.6357421875,36.69749540813658,-2.8530419754532925,-0.05664887564262244,81
1764974074.2740645,332,1.62109375,36.700808125812706,-3.7230147338820694,-0.053336157966498376,80
1764974074.37576,332,1.62109375,36.618408996914724,-3.7230147338820694,-0.135735286864481,79
1764974074.4771976,327,1.5966796875,36.863875108219005,-5.172969331263364,0.10973082443980076,79
1764974074.578741,339,1.6552734375,36.57914658855757,-1.6930782975482572,-0.17499769522163433,78
1764974074.68016,332,1.62109375,36.78486609282985,-3.7230147338820694,0.030721809050646698,77
1764974074.7811124,334,1.630859375,36.639575146821635,-3.1430328949295516,-0.1145691369575701,76
1764974074.882573,331,1.6162109375,36.71226908918036,-4.013005653358328,-0.0418751945988447,75
1764974074.9839764,341,1.6650390625,36.696941803528986,-1.1130964585957395,-0.05720248025021846,73
1764974075.0854359,322,1.572265625,36.86285369075066,-6.622923928644657,0.1087094069714567,73
1764974075.1869564,335,1.6357421875,36.71399662858144,-2.8530419754532925,-0.040147655197763754,74
1764974075.288062,336,1.640625,36.93240876652129,-2.5630510559770334,0.17826448274208673,74
1764974075.38966,324,1.58203125,36.807611991185404,-6.04294208969214,0.05346770740619888,75
1764974075.4908826,327,1.5966796875,36.91684600325517,-5.172969331263364,0.1627017194759688,77
1764974075.5922885,328,1.6015625,36.635193714557765,-4.8829784117871045,-0.11895056922143965,77
1764974075.6939578,340,1.66015625,36.59564969579626,-1.4030873780719983,-0.15849458798294336,77
1764974075.7952657,329,1.6064453125,36.742322289878814,-4.592987492310845,-0.011821993900390737,77
1764974075.8963745,328,1.6015625,36.92764481948268,-4.8829784117871045,0.17350053570347512,77
1764974075.997437,321,1.5673828125,36.942123676879476,-6.9129148481209155,0.1879793931002709,78
1764974076.0987508,323,1.5771484375,36.72906886837229,-6.332933009168398,-0.025075415406917045,78
1764974076.2001283,338,1.650390625,36.61959167187405,-1.983069217024516,-0.134552611905157,78
1764974076.3013132,329,1.6064453125,36.83876544078974,-4.592987492310845,0.08462115701053818,78
1764974076.4027996,326,1.591796875,36.652567690502494,-5.462960250739622,-0.10157659327671098,78
1764974076.5041661,323,1.5771484375,36.61117802909107,-6.332933009168398,-0.14296625468813318,78
1764974076.6053731,328,1.6015625,36.714881760551876,-4.8829784117871045,-0.03926252322732893,79
1764974076.7071445,338,1.650390625,36.913076034579966,-1.983069217024516,0.15893175080076105,79
1764974076.808782,337,1.6455078125,36.58533885036507,-2.2730601365007748,-0.16880543341413556,79
1764974076.9100802,326,1.591796875,36.92335443263692,-5.462960250739622,0.16921014885771513,79
1764974077.0113726,325,1.5869140625,36.91179416797806,-5.752951170215881,0.15764988419885384,78
1764974077.1124656,329,1.6064453125,36.600241705610976,-4.592987492310845,-0.1539025781682284,78
1764974077.2139494,337,1.6455078125,36.613153224396996,-2.2730601365007748,-0.14099105938220902,77
1764974077.3155003,326,1.591796875,36.66015631150506,-5.462960250739622,-0.09398797227414235,77
1764974077.4172683,331,1.6162109375,36.85994003172509,-4.013005653358328,0.10579574794588353,76
1764974077.5187418,323,1.5771484375,36.63308228054432,-6.332933009168398,-0.12106200323488281,76
1764974077.6209981,331,1.6162109375,36.647695416558754,-4.013005653358328,-0.10644886722045044,76
1764974077.722593,327,1.5966796875,36.70770744524189,-5.172969331263364,-0.046436838537317726,75
1764974077.8242261,334,1.630859375,36.78133775064815,-3.1430328949295516,0.027193466868943972,75
1764974077.926416,321,1.5673828125,36.73100450499578,-6.9129148481209155,-0.023139778783423992,75
1764974078.0274708,337,1.6455078125,36.752940125301244,-2.2730601365007748,-0.0012041584779609593,75
1764974078.1287942,323,1.5771484375,36.70098513288802,-6.332933009168398,-0.05315915089118306,75
1764974078.230163,337,1.6455078125,36.67604497614237,-2.2730601365007748,-0.07809930763683326,75
1764974078.331839,325,1.5869140625,36.66662582730314,-5.752951170215881,-0.0875184564760616,74
1764974078.4330163,328,1.6015625,36.566181689201755,-4.8829784117871045,-0.18796259457744924,73
1764974078.5343525,334,1.630859375,36.634377743999394,-3.1430328949295516,-0.11976653977981044,73
1764974078.635708,340,1.66015625,36.84590817405746,-1.4030873780719983,0.09176389027825849,72
1764974078.7371886,322,1.572265625,36.65046290905995,-6.622923928644657,-0.1036813747192582,73
1764974078.838273,327,1.5966796875,36.74091092445984,-5.172969331263364,-0.013233359319364979,73
1764974078.9401515,336,1.640625,36.685474304705934,-2.5630510559770334,-0.06866997907327033,74
1764974079.0420544,327,1.5966796875,36.81697239803226,-5.172969331263364,0.06282811425305823,74
1764974079.1436498,325,1.5869140625,36.76395250179439,-5.752951170215881,0.00980821801518772,74
1764974079.24471,330,1.611328125,36.746592217867665,-4.302996572834586,-0.007552065911539785,73
1764974079.3463879,336,1.640625,36.60717366837468,-2.5630510559770334,-0.14697061540452694,73
1764974079.4474673,328,1.6015625,36.74725342648573,-4.8829784117871045,-0.0068908572934773815,73
1764974079.549035,322,1.572265625,36.84701496012331,-6.622923928644657,0.09287067634410562,74
1764974079.6506758,325,1.5869140625,36.67556971740467,-5.752951170215881,-0.07857456637453453,74
1764974079.7519298,338,1.650390625,36.671412737988526,-1.983069217024516,-0.0827315457906792,75
1764974079.8536944,332,1.62109375,36.89498954202305,-3.7230147338820694,0.14084525824384286,74
1764974079.9552977,325,1.5869140625,36.74663715677049,-5.752951170215881,-0.007507127008715031,74
1764974080.056867,324,1.58203125,36.95897429265416,-6.04294208969214,0.20483000887495706,73
1764974080.1585448,335,1.6357421875,36.64020272844603,-2.8530419754532925,-0.11394155533317729,72
1764974080.2600677,321,1.5673828125,36.6905926177399,-6.9129148481209155,-0.06355166603930229,71
1764974080.3609924,336,1.640625,36.8070025710028,-2.5630510559770334,0.05285828722359298,71
1764974080.462166,337,1.6455078125,36.9026103223257,-2.2730601365007748,0.14846603854649487,71
1764974080.56373,328,1.6015625,36.8302220179277,-4.8829784117871045,0.07607773414849817,70
1764974080.6650674,338,1.650390625,36.57717850707107,-1.983069217024516,-0.17696577670813696,70
1764974080.7665935,338,1.650390625,36.95388983957177,-1.983069217024516,0.1997455557925676,70
1764974080.867725,321,1.5673828125,36.80195519301377,-6.9129148481209155,0.047810909234563326,69
1764974080.9691737,327,1.5966796875,36.76885484648991,-5.172969331263364,0.014710562710703812,70
1764974081.0703633,340,1.66015625,36.9498782465856,-1.4030873780719983,0.19573396280639344,70
1764974081.1723094,326,1.591796875,36.709605360048904,-5.462960250739622,-0.04453892373030044,71
1764974081.2737625,332,1.62109375,36.79735246287155,-3.7230147338820694,0.0432081790923462,71
1764974081.3752413,328,1.6015625,36.592620168477964,-4.8829784117871045,-0.16152411530124056,72
1764974081.4766161,337,1.6455078125,36.94589812002896,-2.2730601365007748,0.1917538362497524,72
1764974081.5779715,339,1.6552734375,36.83718820499264,-1.6930782975482572,0.08304392121343795,72
1764974081.679735,325,1.5869140625,36.62995157590425,-5.752951170215881,-0.12419270787495407,72
1764974081.7808352,327,1.5966796875,36.95042808988282,-5.172969331263364,0.19628380610361518,72
1764974081.8821971,323,1.5771484375,36.57459561321868,-6.332933009168398,-0.17954867056052137,72
1764974081.9833572,325,1.5869140625,36.896260611174235,-5.752951170215881,0.14211632739502988,71
1764974082.0847316,324,1.58203125,36.697304274067164,-6.04294208969214,-0.056840009712040285,71
1764974082.1862242,330,1.611328125,36.81451544619132,-4.302996572834586,0.060371162412117485,70
1764974082.2874115,329,1.6064453125,36.801230336757264,-4.592987492310845,0.047086052978059456,70
1764974082.3889804,340,1.66015625,36.958401119230444,-1.4030873780719983,0.20425683545123974,70
1764974082.4911828,326,1.591796875,36.65425345135837,-5.462960250739622,-0.09989083242083296,69
1764974082.5924482,324,1.58203125,36.893375161202236,-6.04294208969214,0.13923087742303153,68
1764974082.693838,331,1.6162109375,36.95669053513712,-4.013005653358328,0.2025462513579157,67
1764974082.795067,324,1.58203125,36.563304011112244,-6.04294208969214,-0.1908402726669607,66
1764974082.8962767,327,1.5966796875,36.705066083608436,-5.172969331263364,-0.04907820017076858,65
1764974082.997894,324,1.58203125,36.70592648439884,-6.04294208969214,-0.04821779938036741,65
1764974083.0998862,329,1.6064453125,36.84065607552104,-4.592987492310845,0.08651179174183454,65
1764974083.2014005,333,1.6259765625,36.7410371268507,-3.4330238144058103,-0.013107156928505503,65
1764974083.3026729,323,1.5771484375,36.95392646138666,-6.332933009168398,0.1997821776074531,66
1764974083.4044452,329,1.6064453125,36.77857042065118,-4.592987492310845,0.02442613687197337,66
1764974083.5064292,335,1.6357421875,36.62331262438996,-2.8530419754532925,-0.13083165938924424,67
1764974083.6087272,321,1.5673828125,36.68147105985512,-6.9129148481209155,-0.0726732239240846,66
1764974083.7103283,325,1.5869140625,36.93782467010797,-5.752951170215881,0.18368038632876704,66
1764974083.8120098,323,1.5771484375,36.85444774411077,-6.332933009168398,0.1003034603315669,66
1764974083.9134128,328,1.6015625,36.889746958483535,-4.8829784117871045,0.13560267470433018,65
1764974084.0148053,329,1.6064453125,36.611566730398295,-4.592987492310845,-0.14257755338091016,65
1764974084.1159575,329,1.6064453125,36.74462383583349,-4.592987492310845,-0.009520447945718047,65
1764974084.2173016,326,1.591796875,36.82447125173622,-5.462960250739622,0.07032696795701554,65
1764974084.319133,333,1.6259765625,36.7061598658581,-3.4330238144058103,-0.04798441792110708,64
1764974084.4207313,326,1.591796875,36.59857890620279,-5.462960250739622,-0.15556537757641564,64
1764974084.5230706,331,1.6162109375,36.733910864891705,-4.013005653358328,-0.020233418887499965,64
1764974084.6241992,332,1.62109375,36.895118858210026,-3.7230147338820694,0.14097457443082106,64
1764974084.7255542,325,1.5869140625,36.63296251947095,-5.752951170215881,-0.121181764308254,65
1764974084.8270528,339,1.6552734375,36.665554712882724,-1.6930782975482572,-0.088589570896481,65
1764974084.9285235,340,1.66015625,36.899851235886395,-1.4030873780719983,0.1457069521071901,65
1764974085.0296266,340,1.66015625,36.63389034234152,-1.4030873780719983,-0.12025394143768153,64
1764974085.1310496,336,1.640625,36.733091256997135,-2.5630510559770334,-0.021053026782070106,65
1764974085.2332811,329,1.6064453125,36.86599866000887,-4.592987492310845,0.11185437622966532,65
1764974085.3345547,331,1.6162109375,36.726784758843515,-4.013005653358328,-0.02735952493569016,65
1764974085.4371111,337,1.6455078125,36.67443376448905,-2.2730601365007748,-0.0797105192901526,65
1764974085.5388248,321,1.5673828125,36.78231507175547,-6.9129148481209155,0.028170787976264933,65
1764974085.6401634,322,1.572265625,36.754675160491,-6.622923928644657,0.0005308767117924162,65
1764974085.7417407,327,1.5966796875,36.61251012721296,-5.172969331263364,-0.14163415656624778,66
1764974085.844028,331,1.6162109375,36.85045234776429,-4.013005653358328,0.0963080639850844,66
1764974085.9453015,334,1.630859375,36.57570212214393,-3.1430328949295516,-0.1784421616352745,66
1764974086.047135,327,1.5966796875,36.56850342407115,-5.172969331263364,-0.18564085970805166,66
1764974086.1487763,323,1.5771484375,36.708764556409214,-6.332933009168398,-0.04537972736999052,67
1764974086.2501335,332,1.62109375,36.941902409949215,-3.7230147338820694,0.1877581261700101,67
1764974086.3518035,327,1.5966796875,36.64182146630166,-5.172969331263364,-0.11232281747754769,67
1764974086.453212,338,1.650390625,36.79910524936412,-1.983069217024516,0.044960965584913026,67
1764974086.5546298,329,1.6064453125,36.91302790413995,-4.592987492310845,0.1588836203607471,65
1764974086.656147,322,1.572265625,36.5705476359147,-6.622923928644657,-0.1835966478645048,64
1764974086.7582684,328,1.6015625,36.76200264634025,-4.8829784117871045,0.007858362561044885,64
1764974086.8606687,322,1.572265625,36.668999050326256,-6.622923928644657,-0.08514523345294833,64
1764974086.9627929,332,1.62109375,36.668196765874654,-3.7230147338820694,-0.08594751790455035,64
1764974087.0642612,335,1.6357421875,36.78938717103004,-2.8530419754532925,0.03524288725083835,65
1764974087.1662157,329,1.6064453125,36.9034939678498,-4.592987492310845,0.14934968407059301,66
1764974087.2676337,325,1.5869140625,36.84242061314405,-5.752951170215881,0.0882763293648452,66
1764974087.36955,323,1.5771484375,36.712714604395444,-6.332933009168398,-0.04142967938376074,66
1764974087.4710948,340,1.66015625,36.65468530506299,-1.4030873780719983,-0.09945897871621412,67
1764974087.5725086,330,1.611328125,36.59902036648547,-4.302996572834586,-0.15512391729373576,66
1764974087.6738067,322,1.572265625,36.86850871916626,-6.622923928644657,0.11436443538705277,66
1764974087.7752724,321,1.5673828125,36.89014132017497,-6.9129148481209155,0.13599703639576433,65
1764974087.876134,338,1.650390625,36.9207141485621,-1.983069217024516,0.16656986478289326,65
1764974087.9773862,320,1.5625,36.90514799032974,-7.202905767597175,0.15100370655053297,64
1764974088.078647,333,1.6259765625,36.68406158119741,-3.4330238144058103,-0.07008270258179294,64
1764974088.1799774,330,1.611328125,36.870665487500254,-4.302996572834586,0.11652120372104946,64
1764974088.280986,323,1.5771484375,36.87740539003087,-6.332933009168398,0.1232611062516682,64
1764974088.3821683,333,1.6259765625,36.59613344544287,-3.4330238144058103,-0.1580108383363381,64
1764974088.4832783,321,1.5673828125,36.65085168503847,-6.9129148481209155,-0.10329259874073671,63
1764974088.5844,331,1.6162109375,36.728476031579596,-4.013005653358328,-0.025668252199608332,63
1764974088.685593,335,1.6357421875,36.725034941448556,-2.8530419754532925,-0.029109342330649213,64
1764974088.7867858,331,1.6162109375,36.76588490546809,-4.013005653358328,0.011740621688886677,64
1764974088.8879585,329,1.6064453125,36.56571118142382,-4.592987492310845,-0.1884331023553827,65
1764974089.0019507,320,1.5625,36.951213887599884,-7.202905767597175,0.19706960382067962,66
1764974089.1031294,331,1.6162109375,36.777443836459504,-4.013005653358328,0.023299552680299485,68
1764974089.20449,327,1.5966796875,36.645298910000975,-5.172969331263364,-0.10884537377823023,68
1764974089.3061314,332,1.62109375,36.77274345839205,-3.7230147338820694,0.018599174612845104,68
1764974089.40712,340,1.66015625,36.86184332154077,-1.4030873780719983,0.10769903776156298,68
1764974089.508431,338,1.650390625,36.751921249992456,-1.983069217024516,-0.002223033786748374,68
1764974089.6094208,339,1.6552734375,36.60349950343935,-1.6930782975482572,-0.15064478033985296,68
1764974089.7107315,324,1.58203125,36.7151260985351,-6.04294208969214,-0.039018185244103165,68
1764974089.812144,332,1.62109375,36.737873929794475,-3.7230147338820694,-0.01627035398472998,68
1764974089.9131806,334,1.630859375,36.73142683095489,-3.1430328949295516,-0.02271745282431681,68
1764974090.0147364,327,1.5966796875,36.584982809407926,-5.172969331263364,-0.16916147437127904,68
1764974090.1161568,325,1.5869140625,36.61410756086185,-5.752951170215881,-0.14003672291735825,68
1764974090.217461,334,1.630859375,36.852913120982954,-3.1430328949295516,0.09876883720374963,68
1764974090.3187745,327,1.5966796875,36.65891885780076,-5.172969331263364,-0.09522542597844819,68
1764974090.4204593,332,1.62109375,36.900111115229436,-3.7230147338820694,0.14596683145023093,67
1764974090.5223036,326,1.591796875,36.69667839034958,-5.462960250739622,-0.05746589342962238,67
1764974090.6238754,329,1.6064453125,36.77622845453666,-4.592987492310845,0.02208417075745217,67
1764974090.7252169,326,1.591796875,36.95999401210687,-5.462960250739622,0.20584972832766368,67
1764974090.826643,338,1.650390625,36.7537347596234,-1.983069217024516,-0.0004095241558061957,66
1764974090.9277995,324,1.58203125,36.75836496718854,-6.04294208969214,0.0042206834093363454,67
1764974091.0287786,334,1.630859375,36.62035743426653,-3.1430328949295516,-0.13378684951267417,67
1764974091.1297913,330,1.611328125,36.840145415294536,-4.302996572834586,0.08600113151533151,68
1764974091.2314484,337,1.6455078125,36.60055997894249,-2.2730601365007748,-0.1535843048367127,69
1764974091.3330317,338,1.650390625,36.95460868674881,-1.983069217024516,0.2004644029696081,71
1764974091.4341686,336,1.640625,36.869956295361405,-2.5630510559770334,0.11581201158220011,71
1764974091.5357919,336,1.640625,36.931299506156684,-2.5630510559770334,0.17715522237747905,71
1764974091.636989,339,1.6552734375,36.84403150893261,-1.6930782975482572,0.08988722515340442,70
1764974091.7382214,339,1.6552734375,36.937765152204854,-1.6930782975482572,0.18362086842564906,69
1764974091.839551,322,1.572265625,36.74845354116346,-6.622923928644657,-0.005690742615747979,69
1764974091.9413862,333,1.6259765625,36.85887759340392,-3.4330238144058103,0.10473330962471294,70
1764974092.042729,329,1.6064453125,36.591792727623265,-4.592987492310845,-0.1623515561559401,70
1764974092.1438823,333,1.6259765625,36.58848279530538,-3.4330238144058103,-0.16566148847382323,71
1764974092.2450228,323,1.5771484375,36.72994028734669,-6.332933009168398,-0.024203996432511587,72
1764974092.3462398,340,1.66015625,36.637442103994786,-1.4030873780719983,-0.11670217978441855,72
1764974092.4474921,329,1.6064453125,36.78503834831673,-4.592987492310845,0.0308940645375273,73
1764974092.5488322,340,1.66015625,36.768937120102876,-1.4030873780719983,0.014792836323671565,73
1764974092.6501422,320,1.5625,36.93085854700891,-7.202905767597175,0.17671426322970518,74
1764974092.75113,332,1.62109375,36.82961803206054,-3.7230147338820694,0.07547374828133258,74
1764974092.8522608,340,1.66015625,36.78745289336076,-1.4030873780719983,0.03330860958155313,74
1764974092.9537802,341,1.6650390625,36.650155069435755,-1.1130964585957395,-0.10398921434344999,71
1764974093.0553358,323,1.5771484375,36.673706166493965,-6.332933009168398,-0.0804381172852402,69
1764974093.1568704,326,1.591796875,36.79557491672121,-5.462960250739622,0.04143063294200289,67
1764974093.2584054,328,1.6015625,36.77608602575463,-4.8829784117871045,0.02194174197542509,65
1764974093.359622,326,1.591796875,36.85003509830817,-5.462960250739622,0.09589081452896409,63
1764974093.4609108,326,1.591796875,36.79378034866241,-5.462960250739622,0.03963606488320437,64
1764974093.5619533,321,1.5673828125,36.913414939310584,-6.9129148481209155,0.15927065553137965,65
1764974093.663516,324,1.58203125,36.95526779824231,-6.04294208969214,0.20112351446310583,67
1764974093.7651165,321,1.5673828125,36.74352903283184,-6.9129148481209155,-0.010615250947367372,70
1764974093.8661194,327,1.5966796875,36.759896046331264,-5.172969331263364,0.005751762552058892,73
1764974093.9674861,326,1.591796875,36.64986219074986,-5.462960250739622,-0.10428209302934732,75
1764974094.0684443,324,1.58203125,36.61508186165146,-6.04294208969214,-0.13906242212774345,77
1764974094.1696389,331,1.6162109375,36.741684185086434,-4.013005653358328,-0.012460098692770316,77
1764974094.2720358,335,1.6357421875,36.77520681742484,-2.8530419754532925,0.021062533645633152,75
1764974094.373407,334,1.630859375,36.74938068557223,-3.1430328949295516,-0.004763598206977804,73
1764974094.4748178,331,1.6162109375,36.84906637780714,-4.013005653358328,0.09492209402793605,71
1764974094.576204,331,1.6162109375,36.77930476256147,-4.013005653358328,0.02516047878226857,68
1764974094.677735,329,1.6064453125,36.695768183685836,-4.592987492310845,-0.05837610009336913,66
1764974094.7792468,330,1.611328125,36.91327546643546,-4.302996572834586,0.15913118265625315,65
1764974094.880223,337,1.6455078125,36.919589333528066,-2.2730601365007748,0.1654450497488611,66
1764974094.9817848,337,1.6455078125,36.933298961899624,-2.2730601365007748,0.17915467812041896,66
1764974095.083151,337,1.6455078125,36.83748902531682,-2.2730601365007748,0.08334474153761562,67
1764974095.1844378,327,1.5966796875,36.63739976057239,-5.172969331263364,-0.11674452320681183,69
1764974095.286288,325,1.5869140625,36.667387919957484,-5.752951170215881,-0.08675636382172058,72
1764974095.38771,331,1.6162109375,36.784716445346476,-4.013005653358328,0.03057216156727094,73
1764974095.4894924,337,1.6455078125,36.65090616869592,-2.2730601365007748,-0.10323811508328617,75
1764974095.5935307,338,1.650390625,36.7353094246587,-1.983069217024516,-0.018834859120502756,77
1764974095.6946309,322,1.572265625,36.63343290179967,-6.622923928644657,-0.12071138197953246,78
1764974095.7962742,330,1.611328125,36.78849579806046,-4.302996572834586,0.034351514281254936,77
1764974095.8977249,329,1.6064453125,36.834439373717004,-4.592987492310845,0.08029508993779899,76
1764974095.9992862,337,1.6455078125,36.56912133702761,-2.2730601365007748,-0.18502294675159447,75
1764974096.1005335,324,1.58203125,36.718824838442465,-6.04294208969214,-0.035319445336739363,74
1764974096.2018106,332,1.62109375,36.891791439982406,-3.7230147338820694,0.1376471562032009,73
1764974096.3038456,323,1.5771484375,36.79935173734597,-6.332933009168398,0.0452074535667677,73
1764974096.4052422,335,1.6357421875,36.56048187597214,-2.8530419754532925,-0.1936624078070679,73
1764974096.5064683,328,1.6015625,36.712750016355535,-4.8829784117871045,-0.04139426742366936,73
1764974096.6081612,322,1.572265625,36.71123897303365,-6.622923928644657,-0.04290531074555304,75
1764974096.7095475,332,1.62109375,36.86601593298108,-3.7230147338820694,0.11187164920187342,77
1764974096.811371,321,1.5673828125,36.62304036256187,-6.9129148481209155,-0.13110392121733128,78
1764974096.9349525,321,1.5673828125,36.598697520785855,-6.9129148481209155,-0.1554467629933498,80
1764974097.0665307,340,1.66015625,36.63318255822961,-1.4030873780719983,-0.12096172554959139,80
1764974097.1788456,339,1.6552734375,36.734077574098265,-1.6930782975482572,-0.02006670968093971,79
1764974097.2808425,334,1.630859375,36.858386731717516,-3.1430328949295516,0.1042424479383115,78
1764974097.3818436,337,1.6455078125,36.67161396220888,-2.2730601365007748,-0.08253032157032436,77
1764974097.4830651,321,1.5673828125,36.91559655898474,-6.9129148481209155,0.16145227520553362,75
1764974097.5843043,322,1.572265625,36.6722131565182,-6.622923928644657,-0.08193112726100793,76
1764974097.6853673,322,1.572265625,36.85791291520164,-6.622923928644657,0.10376863142243309,77
1764974097.786598,339,1.6552734375,36.57963492947316,-1.6930782975482572,-0.1745093543060463,78
1764974097.8877525,333,1.6259765625,36.87560998610603,-3.4330238144058103,0.12146570232682308,79
1764974097.9891965,323,1.5771484375,36.56697823503285,-6.332933009168398,-0.18716604874635578,80
1764974098.0901823,329,1.6064453125,36.709649787500105,-4.592987492310845,-0.04449449627909985,80
1764974098.1910496,338,1.650390625,36.89176712261838,-1.983069217024516,0.13762283883917803,80
1764974098.291887,334,1.630859375,36.69004120147433,-3.1430328949295516,-0.06410308230487516,80
1764974098.392778,332,1.62109375,36.57346573688245,-3.7230147338820694,-0.18067854689675755,80
1764974098.494069,338,1.650390625,36.645754174725745,-1.983069217024516,-0.10839010905345958,80
1764974098.595078,340,1.66015625,36.877972828745975,-1.4030873780719983,0.12382854496676998,80
1764974098.6959696,324,1.58203125,36.588065742205465,-6.04294208969214,-0.16607854157373936,80
1764974098.7972596,326,1.591796875,36.687108288163124,-5.462960250739622,-0.06703599561608087,80
1764974098.8983967,332,1.62109375,36.90220971305928,-3.7230147338820694,0.1480654292800736,80
1764974098.9994903,324,1.58203125,36.736749836543275,-6.04294208969214,-0.017394447235929533,80
1764974099.1006906,321,1.5673828125,36.942043813066384,-6.9129148481209155,0.18789952928717923,80
1764974099.2019095,334,1.630859375,36.72345116090693,-3.1430328949295516,-0.030693122872271772,80
1764974099.303083,331,1.6162109375,36.84459160055917,-4.013005653358328,0.09044731677996509,80
1764974099.4044576,337,1.6455078125,36.7440185277268,-2.2730601365007748,-0.01012575605240329,80
1764974099.5058486,329,1.6064453125,36.67537257305118,-4.592987492310845,-0.07877171072802724,80
1764974099.6072996,327,1.5966796875,36.72931238225259,-5.172969331263364,-0.024831901526617628,80
1764974099.7082956,333,1.6259765625,36.8743403962393,-3.4330238144058103,0.12019611246009276,80
1764974099.8094745,330,1.611328125,36.58856427733428,-4.302996572834586,-0.16558000644492665,80
1764974099.9108758,335,1.6357421875,36.577461529949716,-2.8530419754532925,-0.17668275382948906,79
1764974100.013899,325,1.5869140625,36.56720731387056,-5.752951170215881,-0.1869369699086434,79
1764974100.115073,337,1.6455078125,36.612298389120475,-2.2730601365007748,-0.14184589465872932,79
1764974100.2163537,328,1.6015625,36.610559117532674,-4.8829784117871045,-0.14358516624653106,80
1764974100.317573,325,1.5869140625,36.57747948620463,-5.752951170215881,-0.1766647975745741,79
1764974100.4186912,326,1.591796875,36.6668127096142,-5.462960250739622,-0.08733157416500603,79
1764974100.519672,341,1.6650390625,36.79406733200545,-1.1130964585957395,0.039923048226242486,79
1764974100.620731,322,1.572265625,36.70313637774661,-6.622923928644657,-0.051007906032594974,78
1764974100.7220793,336,1.640625,36.93458472079884,-2.5630510559770334,0.18044043701963375,77
1764974100.8230033,330,1.611328125,36.79367123583047,-4.302996572834586,0.03952695205126844,77
1764974100.924312,336,1.640625,36.736641211463656,-2.5630510559770334,-0.017503072315548707,76
1764974101.02556,333,1.6259765625,36.74402993295941,-3.4330238144058103,-0.010114350819797835,76
1764974101.1269526,321,1.5673828125,36.67596794668483,-6.9129148481209155,-0.07817633709437644,76
1764974101.228274,326,1.591796875,36.79944520150928,-5.462960250739622,0.045300917730074275,76
1764974101.3295498,320,1.5625,36.75855980110292,-7.202905767597175,0.0044155173237143686,76
1764974101.430572,328,1.6015625,36.63617005240053,-4.8829784117871045,-0.11797423137867469,76
1764974101.532398,334,1.630859375,36.618751646661885,-3.1430328949295516,-0.1353926371173202,75
1764974101.6334326,321,1.5673828125,36.72152705686394,-6.9129148481209155,-0.032617226915263586,75
1764974101.7346427,332,1.62109375,36.697222201886646,-3.7230147338820694,-0.05692208189255865,75
1764974101.83631,336,1.640625,36.65641825026132,-2.5630510559770334,-0.09772603351788689,74
1764974101.9373784,340,1.66015625,36.94864327104084,-1.4030873780719983,0.19449898726163184,74
1764974102.03887,331,1.6162109375,36.6093771487854,-4.013005653358328,-0.14476713499380622,72
1764974102.1409118,329,1.6064453125,36.71797573051708,-4.592987492310845,-0.036168553262122316,72
1764974102.2421618,329,1.6064453125,36.62891494210242,-4.592987492310845,-0.12522934167678557,71
1764974102.3433363,340,1.66015625,36.59356484872145,-1.4030873780719983,-0.1605794350577554,70
1764974102.4447281,324,1.58203125,36.698822729781774,-6.04294208969214,-0.05532155399743033,69
1764974102.5462809,328,1.6015625,36.95331983109357,-4.8829784117871045,0.19917554731436837,69
1764974102.6473372,340,1.66015625,36.85700006218305,-1.4030873780719983,0.10285577840384263,68
1764974102.7490098,338,1.650390625,36.75784724556642,-1.983069217024516,0.003702961787212189,68
1764974102.8507428,333,1.6259765625,36.78326695131771,-3.4330238144058103,0.0291226675385019,68
1764974102.9520884,324,1.58203125,36.664014897675045,-6.04294208969214,-0.09012938610415944,69
1764974103.0537379,323,1.5771484375,36.613708386576135,-6.332933009168398,-0.14043589720306926,71
1764974103.155064,341,1.6650390625,36.80990694528104,-1.1130964585957395,0.05576266150183784,72
1764974103.2568738,323,1.5771484375,36.861716360477544,-6.332933009168398,0.10757207669833946,74
1764974103.3582928,330,1.611328125,36.601730385016424,-4.302996572834586,-0.15241389876278078,75
1764974103.459567,339,1.6552734375,36.89399528305282,-1.6930782975482572,0.13985099927361233,75
1764974103.5653899,337,1.6455078125,36.69493352260918,-2.2730601365007748,-0.05921076117002144,74
1764974103.6670034,335,1.6357421875,36.91212749677094,-2.8530419754532925,0.1579832129917378,73
1764974103.7684443,334,1.630859375,36.700474393936,-3.1430328949295516,-0.05366988984320642,71
1764974103.8699517,327,1.5966796875,36.73385859942082,-5.172969331263364,-0.020285684358384515,70
1764974103.971919,321,1.5673828125,36.660040534554305,-6.9129148481209155,-0.0941037492248995,68
1764974104.0732605,321,1.5673828125,36.65537289590339,-6.9129148481209155,-0.0987713878758143,68
1764974104.174968,326,1.591796875,36.617924388717846,-5.462960250739622,-0.1362198950613589,68
1764974104.276522,324,1.58203125,36.90153543436281,-6.04294208969214,0.14739115058360852,68
1764974104.3782783,325,1.5869140625,36.70994241599577,-5.752951170215881,-0.04420186778343549,68
1764974104.47984,333,1.6259765625,36.89339559493141,-3.4330238144058103,0.1392513111522078,68
1764974104.5810313,340,1.66015625,36.942505242320095,-1.4030873780719983,0.18836095854089052,68
1764974104.682408,324,1.58203125,36.776883866095616,-6.04294208969214,0.0227395823164116,67
1764974104.7837772,323,1.5771484375,36.815116376647715,-6.332933009168398,0.060972092868510686,66
1764974104.8854787,323,1.5771484375,36.92713853149632,-6.332933009168398,0.17299424771711358,65
1764974104.9867663,329,1.6064453125,36.700991872515665,-4.592987492310845,-0.053152411263539534,65
1764974105.0880034,335,1.6357421875,36.691703811265626,-2.8530419754532925,-0.06244047251357898,65
1764974105.1891856,323,1.5771484375,36.775897075577866,-6.332933009168398,0.02175279179866152,66
1764974105.2903576,329,1.6064453125,36.78875486026965,-4.592987492310845,0.034610576490443634,67
1764974105.391627,334,1.630859375,36.85841198167892,-3.1430328949295516,0.10426769789971502,68
1764974105.4939706,329,1.6064453125,36.88147992379381,-4.592987492310845,0.12733564001460707,67
1764974105.5953436,334,1.630859375,36.914445031838056,-3.1430328949295516,0.16030074805885164,65
1764974105.6969085,336,1.640625,36.78986042595031,-2.5630510559770334,0.03571614217110408,65
1764974105.798218,323,1.5771484375,36.68190910258778,-6.332933009168398,-0.07223518119142369,62
1764974105.900127,327,1.5966796875,36.77644701358302,-5.172969331263364,0.02230272980381187,60
1764974106.0017738,337,1.6455078125,36.72502233805821,-2.2730601365007748,-0.029121945720994802,59
1764974106.1033533,329,1.6064453125,36.6158102204178,-4.592987492310845,-0.1383340633614054,59
1764974106.2047849,339,1.6552734375,36.90284623213757,-1.6930782975482572,0.14870194835836514,59
1764974106.3065464,328,1.6015625,36.69900687126047,-4.8829784117871045,-0.055137412518732276,62
1764974106.410021,340,1.66015625,36.67035157250136,-1.4030873780719983,-0.08379271127784449,64
1764974106.5114946,332,1.62109375,36.9231064619126,-3.7230147338820694,0.1689621781333983,66
1764974106.6125615,325,1.5869140625,36.66917403703102,-5.752951170215881,-0.08497024674818476,66
1764974106.7142253,325,1.5869140625,36.938550125403424,-5.752951170215881,0.18440584162421914,66
1764974106.8158994,330,1.611328125,36.683151496917645,-4.302996572834586,-0.07099278686155941,65
1764974106.9177644,334,1.630859375,36.67949145005681,-3.1430328949295516,-0.0746528337223964,65
1764974107.0193236,336,1.640625,36.67809279902803,-2.5630510559770334,-0.07605148475117574,65
1764974107.12289,328,1.6015625,36.76376855606909,-4.8829784117871045,0.009624272289883606,65
1764974107.2240489,338,1.650390625,36.821113171972385,-1.983069217024516,0.06696888819318048,65
1764974107.3250601,321,1.5673828125,36.95564076040348,-6.9129148481209155,0.2014964766242784,65
1764974107.4263053,334,1.630859375,36.89050757548308,-3.1430328949295516,0.13636329170387285,65
1764974107.5274308,324,1.58203125,36.723917987717755,-6.04294208969214,-0.030226296061449887,65
1764974107.6288118,333,1.6259765625,36.825245312378065,-3.4330238144058103,0.0711010285988607,64
1764974107.7301261,337,1.6455078125,36.73824125721455,-2.2730601365007748,-0.015903026564657807,64
1764974107.831602,326,1.591796875,36.84048839432968,-5.462960250739622,0.08634411055047764,64
1764974107.9327233,334,1.630859375,36.846279429279626,-3.1430328949295516,0.09213514550042134,64
1764974108.0339756,334,1.630859375,36.759063313176824,-3.1430328949295516,0.004919029397619568,63
1764974108.1353512,323,1.5771484375,36.845968020127145,-6.332933009168398,0.09182373634794061,64
1764974108.2363245,324,1.58203125,36.71058804453225,-6.04294208969214,-0.04355623924695351,62
1764974108.337348,325,1.5869140625,36.902529417514245,-5.752951170215881,0.14838513373504014,61
1764974108.439033,338,1.650390625,36.61860052691934,-1.983069217024516,-0.13554375685986741,60
1764974108.5404348,334,1.630859375,36.80362329403857,-3.1430328949295516,0.049479010259368295,59
1764974108.6417284,322,1.572265625,36.77867667243343,-6.622923928644657,0.02453238865422236,58
1764974108.74279,324,1.58203125,36.74873545336742,-6.04294208969214,-0.005408830411781196,58
1764974108.8440325,330,1.611328125,36.84187583184683,-4.302996572834586,0.08773154806762307,59
1764974108.945779,321,1.5673828125,36.80556930711106,-6.9129148481209155,0.05142502333185206,59
1764974109.0476363,325,1.5869140625,36.6913119920217,-5.752951170215881,-0.06283229175750193,60
1764974109.1488054,341,1.6650390625,36.70348322779013,-1.1130964585957395,-0.050661055989074555,60
1764974109.249888,336,1.640625,36.94786931628439,-2.5630510559770334,0.1937250325051849,59
1764974109.3509579,322,1.572265625,36.78473966290669,-6.622923928644657,0.030595379127483113,58
1764974109.4522164,336,1.640625,36.869663034816924,-2.5630510559770334,0.11551875103771891,59
1764974109.553723,335,1.6357421875,36.68238738320457,-2.8530419754532925,-0.07175690057463413,61
1764974109.6555786,330,1.611328125,36.79729692584058,-4.302996572834586,0.04315264206137215,62
1764974109.7570982,331,1.6162109375,36.92007186665607,-4.013005653358328,0.16592758287686848,63
1764974109.8584683,338,1.650390625,36.93182861064387,-1.983069217024516,0.1776843268646644,65
1764974109.9602778,333,1.6259765625,36.65593584476279,-3.4330238144058103,-0.09820843901641751,65
1764974110.0616746,322,1.572265625,36.826740076040224,-6.622923928644657,0.0725957922610192,65
1764974110.1627717,320,1.5625,36.70903482095463,-7.202905767597175,-0.04510946282457695,64
1764974110.264281,330,1.611328125,36.79459549019786,-4.302996572834586,0.040451206418651964,62
1764974110.3655787,326,1.591796875,36.93362903923625,-5.462960250739622,0.17948475545704667,61
1764974110.4671066,336,1.640625,36.86517640219379,-2.5630510559770334,0.1110321184145846,60
1764974110.5685465,340,1.66015625,36.5703036934662,-1.4030873780719983,-0.18384059031300382,60
1764974110.676079,325,1.5869140625,36.72877280432529,-5.752951170215881,-0.02537147945391638,62
1764974110.777481,326,1.591796875,36.68723248031945,-5.462960250739622,-0.06691180345975312,63
1764974110.8791337,338,1.650390625,36.89352153623168,-1.983069217024516,0.13937725245247634,64
1764974110.9803588,332,1.62109375,36.79781101226623,-3.7230147338820694,0.04366672848702535,65
1764974111.0819259,327,1.5966796875,36.62949882162379,-5.172969331263364,-0.12464546215541361,64
1764974111.1829538,330,1.611328125,36.660653808765545,-4.302996572834586,-0.09349047501365959,63
1764974111.2841268,326,1.591796875,36.76396465816291,-5.462960250739622,0.00982037438370753,63
1764974111.3851578,335,1.6357421875,36.933912247416096,-2.8530419754532925,0.17976796363689118,63
1764974111.4867063,337,1.6455078125,36.87690679785646,-2.2730601365007748,0.1227625140772588,63
1764974111.5877764,329,1.6064453125,36.79145006168932,-4.592987492310845,0.037305777910113136,63
1764974111.6887856,339,1.6552734375,36.583179783027425,-1.6930782975482572,-0.17096450075177927,63
1764974111.7898493,330,1.611328125,36.644622836432234,-4.302996572834586,-0.109521447346971,63
1764974111.8908157,322,1.572265625,36.635932005207685,-6.622923928644657,-0.11821227857151939,63
1764974111.9928942,330,1.611328125,36.95321902693984,-4.302996572834586,0.19907474316063656,63
1764974112.0944626,337,1.6455078125,36.92317104951538,-2.2730601365007748,0.16902676573617725,63
1764974112.1956089,324,1.58203125,36.763337426589445,-6.04294208969214,0.009193142810239863,64
1764974112.2973747,340,1.66015625,36.88797137361896,-1.4030873780719983,0.13382708983975533,64
1764974112.3986123,321,1.5673828125,36.784378168169944,-6.9129148481209155,0.030233884390739263,65
1764974112.4997506,323,1.5771484375,36.90366910416877,-6.332933009168398,0.1495248203895656,65
1764974112.6005764,322,1.572265625,36.94531278643406,-6.622923928644657,0.19116850265485397,66
1764974112.7015617,329,1.6064453125,36.65348519297135,-4.592987492310845,-0.10065909080785218,66
1764974112.8031068,337,1.6455078125,36.76414577000572,-2.2730601365007748,0.01000148622651409,66
1764974112.9042945,335,1.6357421875,36.58225645156075,-2.8530419754532925,-0.17188783221845227,66
1764974113.0055466,328,1.6015625,36.86677521669928,-4.8829784117871045,0.11263093292007653,66
1764974113.1072075,339,1.6552734375,36.67822418833735,-1.6930782975482572,-0.07592009544185174,66
1764974113.2088015,339,1.6552734375,36.64083115463737,-1.6930782975482572,-0.11331312914183655,67
1764974113.3098948,330,1.611328125,36.646626397133474,-4.302996572834586,-0.1075178866457307,67
1764974113.411231,337,1.6455078125,36.652947545144784,-2.2730601365007748,-0.10119673863442102,68
1764974113.5122902,333,1.6259765625,36.579130825908706,-3.4330238144058103,-0.1750134578704987,69
1764974113.6133885,326,1.591796875,36.93001595227788,-5.462960250739622,0.1758716684986723,70
1764974113.7152066,320,1.5625,36.66955120490006,-7.202905767597175,-0.08459307887914491,70
1764974113.8167846,328,1.6015625,36.866168545585644,-4.8829784117871045,0.11202426180643954,71
1764974113.918527,333,1.6259765625,36.702325469854195,-3.4330238144058103,-0.05181881392500998,71
1764974114.0198133,331,1.6162109375,36.57485544518348,-4.013005653358328,-0.1792888385957241,71
1764974114.1210322,331,1.6162109375,36.859608981419136,-4.013005653358328,0.10546469763993116,71
1764974114.2222037,324,1.58203125,36.86324021249838,-6.04294208969214,0.10909592871917795,71
1764974114.3234837,331,1.6162109375,36.73331375588858,-4.013005653358328,-0.020830527890623785,71
1764974114.425098,339,1.6552734375,36.87585801380677,-1.6930782975482572,0.12171373002756525,71
1764974114.5265684,332,1.62109375,36.60718441020387,-3.7230147338820694,-0.1469598735753337,70
1764974114.628059,331,1.6162109375,36.634272836900614,-4.013005653358328,-0.11987144687859086,70
1764974114.7300794,331,1.6162109375,36.909863742165115,-4.013005653358328,0.15571945838591006,70
1764974114.8313541,326,1.591796875,36.924573893988054,-5.462960250739622,0.17042961020884917,70
1764974114.9327335,326,1.591796875,36.726860442659905,-5.462960250739622,-0.027283841119299268,70
1764974115.0339758,328,1.6015625,36.874063951771184,-4.8829784117871045,0.1199196679919794,71
1764974115.1357417,332,1.62109375,36.71932864524683,-3.7230147338820694,-0.034815638532371906,71
1764974115.2369664,326,1.591796875,36.59663331842997,-5.462960250739622,-0.15751096534923192,70
1764974115.3382537,320,1.5625,36.576574183381574,-7.202905767597175,-0.17757010039763088,70
1764974115.4404185,340,1.66015625,36.76674575282098,-1.4030873780719983,0.01260146904177617,70
1764974115.5417948,322,1.572265625,36.71097977641381,-6.622923928644657,-0.04316450736539679,69
1764974115.64485,334,1.630859375,36.60829551793135,-3.1430328949295516,-0.14584876584785178,69
1764974115.746418,326,1.591796875,36.76888079496914,-5.462960250739622,0.014736511189937573,68
1764974115.8475564,340,1.66015625,36.64110799793142,-1.4030873780719983,-0.1130362858477838,68
1764974115.9489348,340,1.66015625,36.852089840879536,-1.4030873780719983,0.09794555710033137,67
1764974116.0500531,321,1.5673828125,36.93990727242077,-6.9129148481209155,0.1857629886415637,67
1764974116.1515515,336,1.640625,36.79349547388219,-2.5630510559770334,0.039351190102983935,66
1764974116.2525756,334,1.630859375,36.81910203447363,-3.1430328949295516,0.06495775069442544,65
1764974116.354884,334,1.630859375,36.594846063176995,-3.1430328949295516,-0.15929822060221,65
1764974116.4567192,339,1.6552734375,36.93798723117423,-1.6930782975482572,0.1838429473950285,65
1764974116.5583668,321,1.5673828125,36.750852659901525,-6.9129148481209155,-0.0032916238776792284,65
1764974116.6598897,337,1.6455078125,36.852486668639784,-2.2730601365007748,0.09834238486057956,65
1764974116.7615392,334,1.630859375,36.582461955218236,-3.1430328949295516,-0.1716823285609692,66
1764974116.862945,321,1.5673828125,36.944757668722865,-6.9129148481209155,0.19061338494365998,66
1764974116.9645128,326,1.591796875,36.9268456794764,-5.462960250739622,0.1727013956971959,65
1764974117.0656354,340,1.66015625,36.729764249312964,-1.4030873780719983,-0.024380034466240375,65
1764974117.17127,336,1.640625,36.632465461191764,-2.5630510559770334,-0.121678822587441,66
1764974117.2743578,331,1.6162109375,36.58357553395069,-4.013005653358328,-0.17056874982851156,67
1764974117.3760219,323,1.5771484375,36.63525624371353,-6.332933009168398,-0.1188880400656771,68
1764974117.477214,324,1.58203125,36.82853330222068,-6.04294208969214,0.07438901844147239,69
1764974117.5787919,340,1.66015625,36.86545767604752,-1.4030873780719983,0.11131339226831471,70
1764974117.6801527,337,1.6455078125,36.69346150208197,-2.2730601365007748,-0.06068278169723129,70
1764974117.7815783,327,1.5966796875,36.85006630603507,-5.172969331263364,0.09592202225586277,70
1764974117.8839288,333,1.6259765625,36.74526270710226,-3.4330238144058103,-0.00888157667694145,70
1764974117.9853022,340,1.66015625,36.741370243382,-1.4030873780719983,-0.01277404039720409,69
1764974118.0868654,326,1.591796875,36.61801874822623,-5.462960250739622,-0.1361255355529778,68
1764974118.1880019,327,1.5966796875,36.76397461969692,-5.172969331263364,0.009830335917712318,68
1764974118.2893531,329,1.6064453125,36.76667061513372,-4.592987492310845,0.012526331354514753,67
1764974118.3904536,340,1.66015625,36.697942607751706,-1.4030873780719983,-0.05620167602749859,66
1764974118.491414,322,1.572265625,36.86714843114851,-6.622923928644657,0.11300414736930264,67
1764974118.5928173,331,1.6162109375,36.615660731158,-4.013005653358328,-0.13848355262120293,67
1764974118.6944356,323,1.5771484375,36.86205169657879,-6.332933009168398,0.10790741279958382,68
1764974118.7957697,337,1.6455078125,36.634347346365416,-2.2730601365007748,-0.11979693741378838,68
1764974118.8970575,332,1.62109375,36.82927829264199,-3.7230147338820694,0.07513400886278276,68
1764974118.9980788,338,1.650390625,36.93960171380812,-1.983069217024516,0.18545743002891868,67
1764974119.099356,340,1.66015625,36.73463829244419,-1.4030873780719983,-0.019505991335016404,67
1764974119.2003918,335,1.6357421875,36.714526482393985,-2.8530419754532925,-0.03961780138521931,67
1764974119.301862,338,1.650390625,36.72988948538736,-1.983069217024516,-0.02425479839184419,66
1764974119.4031177,333,1.6259765625,36.795368693285546,-3.4330238144058103,0.04122440950634143,66
1764974119.5041733,339,1.6552734375,36.77406337878488,-1.6930782975482572,0.019919095005676013,66
1764974119.6058996,330,1.611328125,36.69586921094777,-4.302996572834586,-0.05827507283143518,65
1764974119.7069185,329,1.6064453125,36.63823718133345,-4.592987492310845,-0.1159071024457532,65
1764974119.8080394,323,1.5771484375,36.75186446877536,-6.332933009168398,-0.0022798150038454423,65
1764974119.9092295,336,1.640625,36.642118129848235,-2.5630510559770334,-0.11202615393096949,65
1764974120.0108454,320,1.5625,36.90639547782553,-7.202905767597175,0.1522511940463218,65
1764974120.1120965,327,1.5966796875,36.766753506452616,-5.172969331263364,0.01260922267341158,65
1764974120.2133644,324,1.58203125,36.89128442080178,-6.04294208969214,0.13714013702257688,65
1764974120.3153076,323,1.5771484375,36.68635734532576,-6.332933009168398,-0.06778693845344463,65
1764974120.417433,329,1.6064453125,36.81076080475247,-4.592987492310845,0.05661652097326453,65
1764974120.5185223,338,1.650390625,36.81260202009132,-1.983069217024516,0.05845773631211415,65
1764974120.6199303,327,1.5966796875,36.77768877979592,-5.172969331263364,0.023544496016718597,66
1764974120.7214491,334,1.630859375,36.8025701236105,-3.1430328949295516,0.048425839831296,66
1764974120.8225188,321,1.5673828125,36.83197247059987,-6.9129148481209155,0.07782818682066761,67
1764974120.9245794,334,1.630859375,36.81162155226838,-3.1430328949295516,0.05747726848917267,68
1764974121.0256584,333,1.6259765625,36.83739242609673,-3.4330238144058103,0.08324814231752242,69
1764974121.1270986,327,1.5966796875,36.73439261440398,-5.172969331263364,-0.01975166937522488,69
1764974121.2285092,326,1.591796875,36.90316448991165,-5.462960250739622,0.14902020613244815,69
1764974121.329685,340,1.66015625,36.631194761375255,-1.4030873780719983,-0.12294952240394963,68
1764974121.431349,333,1.6259765625,36.919803453716646,-3.4330238144058103,0.16565916993744167,69
1764974121.5338547,341,1.6650390625,36.61758857084827,-1.1130964585957395,-0.13655571293093516,69
1764974121.635137,331,1.6162109375,36.63091140111383,-4.013005653358328,-0.12323288266537702,68
1764974121.7362034,327,1.5966796875,36.836497169290034,-5.172969331263364,0.08235288551082931,68
1764974121.8372242,329,1.6064453125,36.79751000551316,-4.592987492310845,0.04336572173395581,67
1764974121.9381847,330,1.611328125,36.793407113295444,-4.302996572834586,0.039262829516239606,67
1764974122.0393074,321,1.5673828125,36.739584559238445,-6.9129148481209155,-0.014559724540760044,66
1764974122.1404762,322,1.572265625,36.95737708836147,-6.622923928644657,0.20323280458226378,65
1764974122.2414923,333,1.6259765625,36.789115001310996,-3.4330238144058103,0.034970717531791706,65
1764974122.3432438,321,1.5673828125,36.76320760383727,-6.9129148481209155,0.009063320058068314,65
1764974122.4447236,330,1.611328125,36.78191108875108,-4.302996572834586,0.02776680497187556,65
1764974122.5465844,339,1.6552734375,36.89875112326672,-1.6930782975482572,0.14460683948751551,65
1764974122.6489031,337,1.6455078125,36.903737576294894,-2.2730601365007748,0.1495932925156893,65
1764974122.7504792,334,1.630859375,36.7140297089212,-3.1430328949295516,-0.04011457485800207,64
1764974122.8514478,324,1.58203125,36.64637208583321,-6.04294208969214,-0.10777219794599802,64
1764974122.952663,340,1.66015625,36.62563410595457,-1.4030873780719983,-0.12851017782463714,64
1764974123.0538948,341,1.6650390625,36.940845424336324,-1.1130964585957395,0.18670114055711906,64
1764974123.1554503,321,1.5673828125,36.625754881982886,-6.9129148481209155,-0.1283894017963192,64
1764974123.2565064,323,1.5771484375,36.902651984154254,-6.332933009168398,0.148507700375049,63
1764974123.3576229,332,1.62109375,36.74894435873049,-3.7230147338820694,-0.005199925048714249,63
1764974123.4589784,328,1.6015625,36.91447273721584,-4.8829784117871045,0.16032845343663382,63
1764974123.5601356,325,1.5869140625,36.607831885315846,-5.752951170215881,-0.1463123984633583,63
1764974123.661916,333,1.6259765625,36.94773956561526,-3.4330238144058103,0.19359528183605335,63
1764974123.7635393,339,1.6552734375,36.70073409621235,-1.6930782975482572,-0.053410187566854006,63
1764974123.865296,333,1.6259765625,36.67858194964343,-3.4330238144058103,-0.07556233413577473,63
1764974123.966731,333,1.6259765625,36.730617171182985,-3.4330238144058103,-0.02352711259621998,64
1764974124.0680254,336,1.640625,36.69315490321864,-2.5630510559770334,-0.06098938056056369,64
1764974124.1689959,336,1.640625,36.93771079680749,-2.5630510559770334,0.18356651302828197,64
1764974124.269975,323,1.5771484375,36.79297674254246,-6.332933009168398,0.038832458763252475,65
1764974124.3710532,339,1.6552734375,36.77650613802102,-1.6930782975482572,0.022361854241815138,65
1764974124.4725463,328,1.6015625,36.77404099221236,-4.8829784117871045,0.019896708433158494,66
1764974124.5737338,330,1.611328125,36.623039374209,-4.302996572834586,-0.1311049095702046,67
1764974124.6750717,337,1.6455078125,36.57536934113754,-2.2730601365007748,-0.1787749426416667,68
1764974124.7760663,327,1.5966796875,36.9522919382121,-5.172969331263364,0.19814765443289417,69
1764974124.8770783,341,1.6650390625,36.65337283349008,-1.1130964585957395,-0.10077145028912327,70
1764974124.9781983,323,1.5771484375,36.69721541319602,-6.332933009168398,-0.05692887058318519,68
1764974125.079991,326,1.591796875,36.59223813654761,-5.462960250739622,-0.16190614723159769,67
1764974125.1815877,337,1.6455078125,36.90066601738037,-2.2730601365007748,0.14652173360116194,65
1764974125.2832897,329,1.6064453125,36.79451977761109,-4.592987492310845,0.04037549383188832,65
1764974125.384806,324,1.58203125,36.91879999854972,-6.04294208969214,0.1646557147705181,64
1764974125.4896915,325,1.5869140625,36.80509618928117,-5.752951170215881,0.05095190550196804,65
1764974125.5909853,325,1.5869140625,36.68864578128436,-5.752951170215881,-0.06549850249484734,65
1764974125.6919303,327,1.5966796875,36.79229487381261,-5.172969331263364,0.038150590033403375,66
1764974125.7938464,335,1.6357421875,36.62339751091883,-2.8530419754532925,-0.13074677286037684,66
1764974125.8955703,331,1.6162109375,36.721859128667006,-4.013005653358328,-0.03228515511219854,66
1764974125.996578,338,1.650390625,36.81022298572276,-1.983069217024516,0.05607870194355513,66
1764974126.0982964,323,1.5771484375,36.57228733720717,-6.332933009168398,-0.181856946572033,65
1764974126.1994615,328,1.6015625,36.75058648162644,-4.8829784117871045,-0.00355780215276269,65
1764974126.3010938,322,1.572265625,36.70964342685985,-6.622923928644657,-0.044500856919356124,64
1764974126.4026775,322,1.572265625,36.61865239638887,-6.622923928644657,-0.13549188739033724,64
1764974126.503721,340,1.66015625,36.72466982368625,-1.4030873780719983,-0.02947446009295618,64
1764974126.6048365,332,1.62109375,36.57511523398342,-3.7230147338820694,-0.17902904979578693,64
1764974126.7060788,334,1.630859375,36.853745503517544,-3.1430328949295516,0.09960121973833935,65
1764974126.8072062,326,1.591796875,36.61487507042593,-5.462960250739622,-0.13926921335327336,66
1764974126.9082193,328,1.6015625,36.65691907125765,-4.8829784117871045,-0.09722521252155758,67
1764974127.0093794,327,1.5966796875,36.9241411023116,-5.172969331263364,0.1699968185323968,68
1764974127.110571,333,1.6259765625,36.85943595237564,-3.4330238144058103,0.10529166859643624,68
1764974127.2119813,335,1.6357421875,36.94949955888924,-2.8530419754532925,0.1953552751100318,68
1764974127.3130183,329,1.6064453125,36.80944228165857,-4.592987492310845,0.0552979978793644,68
1764974127.414147,327,1.5966796875,36.711647064044286,-5.172969331263364,-0.042497219734919156,68
1764974127.5177617,330,1.611328125,36.581975076684586,-4.302996572834586,-0.17216920709461903,68
1764974127.618916,340,1.66015625,36.87459686797169,-1.4030873780719983,0.12045258419248484,69
1764974127.720392,332,1.62109375,36.725307049606855,-3.7230147338820694,-0.02883723417235018,68
1764974127.8220446,341,1.6650390625,36.63604556309366,-1.1130964585957395,-0.11809872068554483,66
1764974127.9234266,334,1.630859375,36.776853332671344,-3.1430328949295516,0.022709048892139094,66
1764974128.0247986,325,1.5869140625,36.621265626403826,-5.752951170215881,-0.13287865737537885,66
1764974128.125963,327,1.5966796875,36.596583662663605,-5.172969331263364,-0.15756062111559999,67
1764974128.2274415,321,1.5673828125,36.61009403743749,-6.9129148481209155,-0.14405024634171326,68
1764974128.328379,338,1.650390625,36.88614409696859,-1.983069217024516,0.13199981318938825,70
1764974128.4293683,327,1.5966796875,36.578740136951915,-5.172969331263364,-0.17540414682729022,70
1764974128.5306718,328,1.6015625,36.71405888673283,-4.8829784117871045,-0.040085397046375704,70
1764974128.6326942,327,1.5966796875,36.866106251641696,-5.172969331263364,0.11196196786249146,70
1764974128.733858,322,1.572265625,36.82964559278787,-6.622923928644657,0.07550130900866492,70
1764974128.8352973,335,1.6357421875,36.90223810136767,-2.8530419754532925,0.1480938175884674,69
1764974128.9364996,328,1.6015625,36.70273136294243,-4.8829784117871045,-0.051412920836774845,69
1764974129.0380247,322,1.572265625,36.88289474981159,-6.622923928644657,0.12875046603238616,69
1764974129.1393604,326,1.591796875,36.79256448502979,-5.462960250739622,0.03842020125058809,68
1764974129.2404683,325,1.5869140625,36.84545705299273,-5.752951170215881,0.09131276921352338,67
1764974129.3416145,337,1.6455078125,36.85969263029001,-2.2730601365007748,0.10554834651080824,66
1764974129.4428334,322,1.572265625,36.888251910176116,-6.622923928644657,0.13410762639691143,65
1764974129.544024,329,1.6064453125,36.90625452298477,-4.592987492310845,0.15211023920556244,65
1764974129.6453383,325,1.5869140625,36.8013534233456,-5.752951170215881,0.04720913956639805,66
1764974129.746567,337,1.6455078125,36.68443902549568,-2.2730601365007748,-0.06970525828352692,67
1764974129.8477654,330,1.611328125,36.91390074878072,-4.302996572834586,0.1597564650015144,69
1764974129.9490676,323,1.5771484375,36.74050063794606,-6.332933009168398,-0.013643645833141704,71
1764974130.051777,335,1.6357421875,36.9342621361581,-2.8530419754532925,0.180117852378892,72
1764974130.153327,330,1.611328125,36.80162860265472,-4.302996572834586,0.04748431887551874,72
1764974130.2555425,335,1.6357421875,36.75567700928675,-2.8530419754532925,0.0015327255075447965,71
1764974130.35676,330,1.611328125,36.699249599663794,-4.302996572834586,-0.05489468411541054,69
1764974130.4581883,330,1.611328125,36.88249995277564,-4.302996572834586,0.12835566899643425,68
1764974130.5595324,340,1.66015625,36.85492547853245,-1.4030873780719983,0.10078119475324598,67
1764974130.6607504,336,1.640625,36.909381657199056,-2.5630510559770334,0.1552373734198511,67
1764974130.762048,334,1.630859375,36.78915046536546,-3.1430328949295516,0.03500618158625457,66
1764974130.8633244,320,1.5625,36.94840660346811,-7.202905767597175,0.19426231968890306,66
1764974130.9647107,340,1.66015625,36.65691181614949,-1.4030873780719983,-0.09723246762971627,66
1764974131.0657773,330,1.611328125,36.73051091002253,-4.302996572834586,-0.023633373756673848,65
1764974131.1673048,337,1.6455078125,36.76924533900997,-2.2730601365007748,0.015101055230765326,64
1764974131.2687268,327,1.5966796875,36.879660878246995,-5.172969331263364,0.12551659446778984,65
1764974131.370075,325,1.5869140625,36.765543354451395,-5.752951170215881,0.011399070672190703,67
1764974131.4720888,331,1.6162109375,36.9195437540123,-4.013005653358328,0.16539947023309765,67
1764974131.5734107,341,1.6650390625,36.71960524778391,-1.1130964585957395,-0.0345390359952944,68
1764974131.6757894,338,1.650390625,36.812077811967775,-1.983069217024516,0.05793352818857045,69
1764974131.777388,337,1.6455078125,36.83846987911758,-2.2730601365007748,0.08432559533837747,70
1764974131.8787599,330,1.611328125,36.61688865429602,-4.302996572834586,-0.13725562948318526,70
1764974131.9799144,326,1.591796875,36.71974795133133,-5.462960250739622,-0.03439633244787643,70
1764974132.0810468,329,1.6064453125,36.80167053084682,-4.592987492310845,0.04752624706761566,71
1764974132.183265,338,1.650390625,36.578837394938006,-1.983069217024516,-0.17530688884119883,71
1764974132.284722,322,1.572265625,36.938027138046195,-6.622923928644657,0.18388285426699014,71
1764974132.3863676,337,1.6455078125,36.65385230107244,-2.2730601365007748,-0.10029198270676432,72
1764974132.488459,337,1.6455078125,36.94923873728064,-2.2730601365007748,0.19509445350143295,72
1764974132.5902898,334,1.630859375,36.60030887648626,-3.1430328949295516,-0.1538354072929451,72
1764974132.6917965,339,1.6552734375,36.92235989642831,-1.6930782975482572,0.16821561264910656,73
1764974132.7938747,323,1.5771484375,36.81088861252698,-6.332933009168398,0.056744328747775796,72
1764974132.895191,333,1.6259765625,36.72010089927327,-3.4330238144058103,-0.03404338450593514,71
1764974132.9966779,325,1.5869140625,36.571504298041134,-5.752951170215881,-0.18263998573807072,70
1764974133.0980537,324,1.58203125,36.88800424260923,-6.04294208969214,0.13385995883002266,69
1764974133.20017,335,1.6357421875,36.91797851645788,-2.8530419754532925,0.16383423267867414,68
1764974133.301743,335,1.6357421875,36.7617053590049,-2.8530419754532925,0.007561075225694935,68
1764974133.4027276,330,1.611328125,36.83827808780632,-4.302996572834586,0.08413380402711823,68
1764974133.5041058,324,1.58203125,36.68729318587158,-6.04294208969214,-0.06685109790762311,68
1764974133.6052434,325,1.5869140625,36.832304264853654,-5.752951170215881,0.07815998107444955,68
1764974133.7066953,325,1.5869140625,36.76533962669316,-5.752951170215881,0.011195342913957518,68
1764974133.8082595,336,1.640625,36.66250947631158,-2.5630510559770334,-0.09163480746762787,67
1764974133.9096713,340,1.66015625,36.95162485047041,-1.4030873780719983,0.19748056669120473,66
1764974134.010763,325,1.5869140625,36.95039905505417,-5.752951170215881,0.19625477127496538,65
1764974134.1125338,334,1.630859375,36.760152337462735,-3.1430328949295516,0.006008053683530079,64
1764974134.2136965,328,1.6015625,36.60462964879908,-4.8829784117871045,-0.14951463498012174,63
1764974134.3150425,333,1.6259765625,36.56816721880829,-3.4330238144058103,-0.18597706497091337,62
1764974134.4162946,334,1.630859375,36.64366646460304,-3.1430328949295516,-0.11047781917616817,63
1764974134.5176892,333,1.6259765625,36.80464753186326,-3.4330238144058103,0.050503248084055485,64
1764974134.619174,326,1.591796875,36.71597130594288,-5.462960250739622,-0.03817297783632512,64
1764974134.7204864,335,1.6357421875,36.898983626952976,-2.8530419754532925,0.14483934317377134,66
1764974134.8218257,336,1.640625,36.79986704506423,-2.5630510559770334,0.0457227612850275,67
1764974134.9231925,333,1.6259765625,36.65338456298268,-3.4330238144058103,-0.10075972079652473,66
1764974135.0244982,334,1.630859375,36.5620765138087,-3.1430328949295516,-0.19206776997050667,65
1764974135.1254716,329,1.6064453125,36.61847703216295,-4.592987492310845,-0.1356672516162547,64
1764974135.22676,322,1.572265625,36.82880938547069,-6.622923928644657,0.07466510169148677,63
1764974135.328989,330,1.611328125,36.83038162422945,-4.302996572834586,0.07623734045024833,62
1764974135.4300368,330,1.611328125,36.676067914380674,-4.302996572834586,-0.07807636939853069,61
1764974135.5316083,334,1.630859375,36.720141554913,-3.1430328949295516,-0.0340027288662057,61
1764974135.6328397,340,1.66015625,36.89670387441967,-1.4030873780719983,0.14255959064046664,60
1764974135.734136,330,1.611328125,36.67517103677476,-4.302996572834586,-0.0789732470044413,60
1764974135.835702,323,1.5771484375,36.69270468081102,-6.332933009168398,-0.061439602968185625,62
1764974135.9373307,331,1.6162109375,36.686228666526986,-4.013005653358328,-0.0679156172522184,63
1764974136.0392437,339,1.6552734375,36.59408622757099,-1.6930782975482572,-0.16005805620821434,63
1764974136.1413527,336,1.640625,36.65753114529905,-2.5630510559770334,-0.0966131384801514,64
1764974136.2425938,340,1.66015625,36.89049129207415,-1.4030873780719983,0.1363470082949476,65
1764974136.3439085,323,1.5771484375,36.876397353690294,-6.332933009168398,0.12225306991108909,65
1764974136.4449527,337,1.6455078125,36.65730708489102,-2.2730601365007748,-0.09683719888818132,66
1764974136.5460012,327,1.5966796875,36.957958171582014,-5.172969331263364,0.2038138878028093,67
1764974136.6475496,332,1.62109375,36.59867056756089,-3.7230147338820694,-0.1554737162183173,67
1764974136.748946,327,1.5966796875,36.63076612395955,-5.172969331263364,-0.1233781598196515,66
1764974136.8514628,324,1.58203125,36.89991595002143,-6.04294208969214,0.1457716662422257,64
1764974136.953128,326,1.591796875,36.69884250103228,-5.462960250739622,-0.05530178274692332,63
1764974137.0548174,333,1.6259765625,36.685683793552634,-3.4330238144058103,-0.06846049022657041,62
1764974137.1565154,331,1.6162109375,36.62984876516027,-4.013005653358328,-0.12429551861893628,60
1764974137.258025,335,1.6357421875,36.807021706306635,-2.8530419754532925,0.05287742252743044,61
1764974137.3595383,337,1.6455078125,36.8029915913199,-2.2730601365007748,0.048847307540697216,62
1764974137.4608362,340,1.66015625,36.722484521516385,-1.4030873780719983,-0.03165976226281941,63
1764974137.5622807,325,1.5869140625,36.77355363903416,-5.752951170215881,0.01940935525495746,63
1764974137.6639287,338,1.650390625,36.82686797556806,-1.983069217024516,0.07272369178885185,64
1764974137.765396,326,1.591796875,36.93221822670423,-5.462960250739622,0.17807394292502465,63
1764974137.866626,322,1.572265625,36.68629170243178,-6.622923928644657,-0.06785258134742378,64
1764974137.9675539,337,1.6455078125,36.80750166852019,-2.2730601365007748,0.05335738474098406,64
1764974138.069052,340,1.66015625,36.83237834741834,-1.4030873780719983,0.07823406363913676,65
1764974138.1705472,331,1.6162109375,36.76348540560543,-4.013005653358328,0.009341121826224708,66
1764974138.2715971,337,1.6455078125,36.85398477826299,-2.2730601365007748,0.09984049448378585,67
1764974138.3729732,320,1.5625,36.945366801312325,-7.202905767597175,0.19122251753312014,68
1764974138.4745202,330,1.611328125,36.95561115915084,-4.302996572834586,0.20146687537163643,68
1764974138.5756376,334,1.630859375,36.828118063625844,-3.1430328949295516,0.07397377984663933,69
1764974138.677765,323,1.5771484375,36.86734765678318,-6.332933009168398,0.11320337300397654,68
1764974138.7789433,332,1.62109375,36.75005930538071,-3.7230147338820694,-0.004084978398495309,66
1764974138.8800576,325,1.5869140625,36.92629766070556,-5.752951170215881,0.17215337692635302,65
1764974138.9809453,323,1.5771484375,36.84659087685622,-6.332933009168398,0.09244659307701397,64
1764974139.0822756,321,1.5673828125,36.881596538356476,-6.9129148481209155,0.12745225457727116,62
1764974139.183536,336,1.640625,36.87827188577073,-2.5630510559770334,0.12412760199152473,62
1764974139.284757,323,1.5771484375,36.69324300318835,-6.332933009168398,-0.06090128059085487,63
1764974139.3862138,327,1.5966796875,36.87479258814975,-5.172969331263364,0.12064830437054752,64
1764974139.4875612,338,1.650390625,36.70810891912914,-1.983069217024516,-0.04603536465006641,64
1764974139.5886111,321,1.5673828125,36.721802449781826,-6.9129148481209155,-0.032341833997378444,64
1764974139.6897745,323,1.5771484375,36.75899616629303,-6.332933009168398,0.004851882513825956,64
1764974139.7911732,321,1.5673828125,36.84256767086612,-6.9129148481209155,0.08842338708691244,63
1764974139.8925784,340,1.66015625,36.75444531792532,-1.4030873780719983,0.0003010341461120447,63
1764974139.9942062,328,1.6015625,36.79350969374102,-4.8829784117871045,0.03936540996181748,64
1764974140.095179,327,1.5966796875,36.88338453845525,-5.172969331263364,0.1292402546760485,64
1764974140.1965508,325,1.5869140625,36.796172240839766,-5.752951170215881,0.042027957060561505,65
1764974140.2975595,336,1.640625,36.63543475619818,-2.5630510559770334,-0.11870952758102504,65
1764974140.3991363,337,1.6455078125,36.91079604375652,-2.2730601365007748,0.15665175997731495,65
1764974140.500517,339,1.6552734375,36.797175488437674,-1.6930782975482572,0.04303120465846888,65
1764974140.6015022,331,1.6162109375,36.76236633948486,-4.013005653358328,0.008222055705658704,66
1764974140.7033033,322,1.572265625,36.662109126867456,-6.622923928644657,-0.09203515691174857,67
1764974140.804431,333,1.6259765625,36.65685802081938,-3.4330238144058103,-0.09728626295982679,68
1764974140.905734,324,1.58203125,36.83927979185751,-6.04294208969214,0.08513550807830228,69
1764974141.0072875,323,1.5771484375,36.79155616344336,-6.332933009168398,0.03741187966415538,69
1764974141.108665,328,1.6015625,36.76695537929944,-4.8829784117871045,0.012811095520234517,69
1764974141.2099397,335,1.6357421875,36.873693248347244,-2.8530419754532925,0.11954896456803965,68
1764974141.3115158,330,1.611328125,36.81216302387216,-4.302996572834586,0.0580187400929546,68
1764974141.4127352,335,1.6357421875,36.82341417163148,-2.8530419754532925,0.06926988785227195,68
1764974141.5140996,323,1.5771484375,36.65074277686792,-6.332933009168398,-0.10340150691128258,68
1764974141.6155977,327,1.5966796875,36.65092364456442,-5.172969331263364,-0.10322063921478275,69
1764974141.7172058,339,1.6552734375,36.9423488881682,-1.6930782975482572,0.1882046043889929,69
1764974141.819188,340,1.66015625,36.63293616693307,-1.4030873780719983,-0.12120811684613386,70
1764974141.9207501,338,1.650390625,36.927506555804015,-1.983069217024516,0.1733622720248107,71
1764974142.0220077,322,1.572265625,36.624083964166466,-6.622923928644657,-0.13006031961273834,72
1764974142.123139,335,1.6357421875,36.68594112231426,-2.8530419754532925,-0.06820316146494321,72
1764974142.2243636,334,1.630859375,36.80879154820077,-3.1430328949295516,0.05464726442156831,72
1764974142.3258047,324,1.58203125,36.690244043045,-6.04294208969214,-0.06390024073420619,73
1764974142.4271972,340,1.66015625,36.757796904204234,-1.4030873780719983,0.0036526204250293404,73
1764974142.5285513,328,1.6015625,36.77771931350524,-4.8829784117871045,0.023575029726032426,73
1764974142.6303675,335,1.6357421875,36.59489135239563,-2.8530419754532925,-0.15925293138357688,74
1764974142.7317476,327,1.5966796875,36.7157637449528,-5.172969331263364,-0.038380538826402244,75
1764974142.8328366,335,1.6357421875,36.725823043834765,-2.8530419754532925,-0.02832123994443947,76
1764974142.9346747,332,1.62109375,36.7069234495176,-3.7230147338820694,-0.047220834261601397,77
1764974143.0362608,325,1.5869140625,36.8591952278975,-5.752951170215881,0.10505094411829674,78
1764974143.1378512,331,1.6162109375,36.74369028916566,-4.013005653358328,-0.010453994613541795,79
1764974143.2391698,327,1.5966796875,36.636628440424325,-5.172969331263364,-0.11751584335488019,79
1764974143.3400831,324,1.58203125,36.694709873186284,-6.04294208969214,-0.05943441059292098,78
1764974143.4414356,324,1.58203125,36.77686557852447,-6.04294208969214,0.022721294745267073,78
1764974143.543053,326,1.591796875,36.656783372927556,-5.462960250739622,-0.09736091085164844,78
1764974143.644756,325,1.5869140625,36.57288703315451,-5.752951170215881,-0.18125725062469655,78
1764974143.7462096,324,1.58203125,36.951099524157186,-6.04294208969214,0.1969552403779815,78
1764974143.8476365,334,1.630859375,36.81326739125354,-3.1430328949295516,0.0591231074743348,78
1764974143.948977,333,1.6259765625,36.83256825106981,-3.4330238144058103,0.07842396729060397,78
1764974144.05026,337,1.6455078125,36.63359924253725,-2.2730601365007748,-0.12054504124195375,79
1764974144.1516805,325,1.5869140625,36.86407838231947,-5.752951170215881,0.10993409854026481,78
1764974144.2529702,325,1.5869140625,36.9070096807771,-5.752951170215881,0.15286539699789614,76
1764974144.3540626,332,1.62109375,36.87834579530092,-3.7230147338820694,0.12420151152171854,75
1764974144.4550602,336,1.640625,36.64421881195333,-2.5630510559770334,-0.10992547182587487,74
1764974144.5566106,332,1.62109375,36.70564856484686,-3.7230147338820694,-0.048495718932343834,72
1764974144.657967,321,1.5673828125,36.827263254973175,-6.9129148481209155,0.0731189711939706,72
1764974144.7593782,328,1.6015625,36.95961295291826,-4.8829784117871045,0.2054686691390586,72
1764974144.8603191,322,1.572265625,36.61886304167669,-6.622923928644657,-0.1352812421025149,72
1764974144.9619958,325,1.5869140625,36.891002839827316,-5.752951170215881,0.1368585560481108,72
