timestamp,ecg_raw,ecg_voltage,temperature,ecg_change_percent,temp_change_celsius,bpm
1764361897.3247418,9801,1.0899,28.7,-6.249029006483807,-0.11091836734693672,70
1764361897.4275894,9901,1.0997,27.57,-5.406053030948033,-1.2409183673469357,70
1764361897.5300536,10001,1.1046,28.99,-4.984565043180127,0.17908163265306243,70
1764361897.6321292,10101,1.0948,27.97,-5.8275410187159205,-0.8409183673469371,70
1764361897.7342749,10201,1.1095,28.99,-4.563077055412239,0.17908163265306243,70
1764361897.8365667,10301,1.0948,28.15,-5.8275410187159205,-0.6609183673469374,70
1764361897.9389558,10401,1.0997,27.93,-5.406053030948033,-0.8809183673469363,70
1764361898.040541,10501,1.0997,28.33,-5.406053030948033,-0.4809183673469377,70
1764361898.1432004,10601,1.0948,28.15,-5.8275410187159205,-0.6609183673469374,70
1764361898.247507,10701,1.0948,28.37,-5.8275410187159205,-0.440918367346935,70
1764361898.349295,10801,1.0997,28.29,-5.406053030948033,-0.5209183673469369,70
1764361898.4509475,10901,1.0948,28.88,-5.8275410187159205,0.069081632653063,70
1764361898.5528686,11001,1.0948,29.14,-5.8275410187159205,0.32908163265306456,70
1764361898.6548183,11101,1.0997,29.1,-5.406053030948033,0.2890816326530654,70
1764361898.7572742,11201,1.0997,28.92,-5.406053030948033,0.1090816326530657,70
1764361898.860301,11301,1.0948,28.59,-5.8275410187159205,-0.22091836734693615,70
1764361898.9630861,11401,1.0948,28.88,-5.8275410187159205,0.069081632653063,70
1764361899.0652347,11501,1.0948,28.37,-5.8275410187159205,-0.440918367346935,70
1764361899.1672637,11601,1.0997,28.95,-5.406053030948033,0.13908163265306328,70
1764361899.2693825,11701,1.0948,28.04,-5.8275410187159205,-0.7709183673469369,70
1764361899.3710926,11801,1.0948,28.73,-5.8275410187159205,-0.08091836734693558,70
1764361899.472843,11901,1.0948,29.14,-5.8275410187159205,0.32908163265306456,70
1764361899.5747795,12001,1.0948,28.48,-5.8275410187159205,-0.3309183673469356,70
1764361899.6770284,12101,1.0948,27.68,-5.8275410187159205,-1.1309183673469363,70
1764361899.7788308,12201,1.0948,27.82,-5.8275410187159205,-0.9909183673469357,70
1764361899.880484,12301,1.0997,29.03,-5.406053030948033,0.21908163265306513,70
1764361899.9821584,12401,1.0948,28.33,-5.8275410187159205,-0.4809183673469377,70
1764361900.083883,12501,1.0948,28.7,-5.8275410187159205,-0.11091836734693672,70
1764361900.1862795,12601,1.0948,28.48,-5.8275410187159205,-0.3309183673469356,70
1764361900.2884116,12701,1.0997,29.06,-5.406053030948033,0.2490816326530627,70
1764361900.3903873,12801,1.0948,27.64,-5.8275410187159205,-1.1709183673469354,70
1764361900.4944494,12901,1.0997,29.14,-5.406053030948033,0.32908163265306456,70
1764361900.5964968,13001,1.0997,28.88,-5.406053030948033,0.069081632653063,70
1764361900.698374,13101,1.0948,28.15,-5.8275410187159205,-0.6609183673469374,70
1764361900.8004293,13201,1.0948,28.92,-5.8275410187159205,0.1090816326530657,70
1764361900.9028091,13301,1.0899,28.59,-6.249029006483807,-0.22091836734693615,70
1764361901.0050724,13401,1.0899,28.37,-6.249029006483807,-0.440918367346935,54
1764361901.1076925,13501,1.0899,28.59,-6.249029006483807,-0.22091836734693615,54
1764361901.2096481,13601,1.0655,27.68,-8.34786714965457,-1.1309183673469363,54
1764361901.311446,13701,1.0948,28.15,-5.8275410187159205,-0.6609183673469374,54
1764361901.4133685,13801,1.0948,28.95,-5.8275410187159205,0.13908163265306328,54
1764361901.5157602,13901,1.0948,27.97,-5.8275410187159205,-0.8409183673469371,53
1764361901.6179757,14001,1.0948,28.99,-5.8275410187159205,0.17908163265306243,53
1764361901.7202659,14101,1.0948,27.68,-5.8275410187159205,-1.1309183673469363,53
1764361901.8230023,14201,1.0899,28.62,-6.249029006483807,-0.19091836734693501,53
1764361901.9266014,14301,1.0948,28.26,-5.8275410187159205,-0.5509183673469344,52
1764361902.028128,14401,1.0948,27.64,-5.8275410187159205,-1.1709183673469354,53
1764361902.1301672,14501,1.0948,28.15,-5.8275410187159205,-0.6609183673469374,54
1764361902.2331266,14601,1.0948,27.68,-5.8275410187159205,-1.1309183673469363,56
1764361902.3354013,14701,1.0948,27.64,-5.8275410187159205,-1.1709183673469354,57
1764361902.4379222,14801,1.0997,28.95,-5.406053030948033,0.13908163265306328,58
1764361902.5407457,14901,1.0948,28.66,-5.8275410187159205,-0.15091836734693587,58
1764361902.6431475,15001,1.0948,28.04,-5.8275410187159205,-0.7709183673469369,58
1764361902.744845,15101,1.0899,28.59,-6.249029006483807,-0.22091836734693615,58
1764361902.847217,15201,1.0948,27.68,-5.8275410187159205,-1.1309183673469363,58
1764361902.9489734,15301,1.0948,28.29,-5.8275410187159205,-0.5209183673469369,58
1764361903.0509655,15401,1.0948,28.99,-5.8275410187159205,0.17908163265306243,58
1764361903.152999,15501,1.0997,29.03,-5.406053030948033,0.21908163265306513,58
1764361903.2549503,15601,1.0948,28.62,-5.8275410187159205,-0.19091836734693501,60
1764361903.3572218,15701,1.0948,28.88,-5.8275410187159205,0.069081632653063,63
1764361903.4597278,15801,1.0948,28.26,-5.8275410187159205,-0.5509183673469344,65
1764361903.561705,15901,1.0948,28.51,-5.8275410187159205,-0.30091836734693445,67
1764361903.6645095,16001,1.0997,28.84,-5.406053030948033,0.02908163265306385,69
1764361903.7668874,16101,1.0997,29.1,-5.406053030948033,0.2890816326530654,69
1764361903.8686993,16201,1.0997,28.55,-5.406053030948033,-0.2609183673469353,69
1764361903.9705288,16301,1.0997,28.15,-5.406053030948033,-0.6609183673469374,69
1764361904.0728648,16401,1.0997,28.22,-5.406053030948033,-0.5909183673469371,68
1764361904.1753304,16501,1.0997,29.06,-5.406053030948033,0.2490816326530627,68
1764361904.2774932,16601,1.0948,28.08,-5.8275410187159205,-0.7309183673469377,69
1764361904.3807054,16701,1.0997,29.03,-5.406053030948033,0.21908163265306513,67
1764361904.483404,16801,1.0997,27.54,-5.406053030948033,-1.2709183673469369,66
1764361904.5854352,16901,1.0997,28.33,-5.406053030948033,-0.4809183673469377,65
1764361904.6879232,17001,1.0948,28.33,-5.8275410187159205,-0.4809183673469377,64
1764361904.7910266,17101,1.0948,28.81,-5.8275410187159205,-0.0009183673469372877,62
1764361904.8934982,17201,1.0997,29.1,-5.406053030948033,0.2890816326530654,64
1764361904.9952831,17301,1.0997,27.54,-5.406053030948033,-1.2709183673469369,66
1764361905.097981,17401,1.0899,28.62,-6.249029006483807,-0.19091836734693501,67
1764361905.1996434,17501,1.0948,29.03,-5.8275410187159205,0.21908163265306513,68
1764361905.3014715,17601,1.0948,28.26,-5.8275410187159205,-0.5509183673469344,69
1764361905.403779,17701,1.0948,27.82,-5.8275410187159205,-0.9909183673469357,68
1764361905.5089138,17801,1.0997,28.77,-5.406053030948033,-0.040918367346936435,67
1764361905.610688,17901,1.0948,28.92,-5.8275410187159205,0.1090816326530657,67
1764361905.7130342,18001,1.0899,28.66,-6.249029006483807,-0.15091836734693587,67
1764361905.815522,18101,1.1046,28.95,-4.984565043180127,0.13908163265306328,67
1764361905.9175305,18201,1.0948,28.04,-5.8275410187159205,-0.7709183673469369,66
1764361906.0195723,18301,1.0997,29.06,-5.406053030948033,0.2490816326530627,65
1764361906.1221879,18401,1.0948,28.19,-5.8275410187159205,-0.6209183673469347,63
1764361906.2248487,18501,1.0997,27.68,-5.406053030948033,-1.1309183673469363,62
1764361906.3272033,18601,1.0997,28.19,-5.406053030948033,-0.6209183673469347,62
1764361906.429673,18701,1.0997,28.29,-5.406053030948033,-0.5209183673469369,62
1764361906.5314028,18801,1.0997,28.62,-5.406053030948033,-0.19091836734693501,62
1764361906.633205,18901,1.0997,28.92,-5.406053030948033,0.1090816326530657,62
1764361906.7361116,19001,1.0948,27.68,-5.8275410187159205,-1.1309183673469363,62
1764361906.8388906,19101,1.0997,28.29,-5.406053030948033,-0.5209183673469369,63
1764361906.9409204,19201,1.0997,27.97,-5.406053030948033,-0.8409183673469371,63
1764361907.0428424,19301,1.0997,28.44,-5.406053030948033,-0.37091836734693473,63
1764361907.1456995,19401,1.0899,28.51,-6.249029006483807,-0.30091836734693445,64
1764361907.2483516,19501,1.0948,28.62,-5.8275410187159205,-0.19091836734693501,63
1764361907.3507607,19601,1.0899,28.51,-6.249029006483807,-0.30091836734693445,63
1764361907.4525833,19701,1.0948,28.73,-5.8275410187159205,-0.08091836734693558,63
1764361907.5580757,19801,1.085,28.66,-6.670516994251714,-0.15091836734693587,63
1764361907.660309,19901,1.0948,28.84,-5.8275410187159205,0.02908163265306385,64
1764361907.7623777,20001,1.0948,28.04,-5.8275410187159205,-0.7709183673469369,66
1764361907.864109,20101,1.0948,27.75,-5.8275410187159205,-1.060918367346936,66
1764361907.9665048,20201,1.0948,28.92,-5.8275410187159205,0.1090816326530657,66
1764361908.0685415,20301,1.0948,28.04,-5.8275410187159205,-0.7709183673469369,66
1764361908.1717348,20401,1.0948,28.29,-5.8275410187159205,-0.5209183673469369,65
1764361908.273855,20501,1.0948,28.0,-5.8275410187159205,-0.810918367346936,64
1764361908.3757591,20601,1.0948,28.62,-5.8275410187159205,-0.19091836734693501,64
1764361908.477348,20701,1.0948,28.48,-5.8275410187159205,-0.3309183673469356,64
1764361908.5794146,20801,1.0899,28.81,-6.249029006483807,-0.0009183673469372877,65
1764361908.6814518,20901,1.0948,29.1,-5.8275410187159205,0.2890816326530654,66
1764361908.783504,21001,1.0948,28.22,-5.8275410187159205,-0.5909183673469371,66
1764361908.8864899,21101,1.0948,28.37,-5.8275410187159205,-0.440918367346935,65
1764361908.9903839,21201,1.0948,28.84,-5.8275410187159205,0.02908163265306385,64
1764361909.092743,21301,1.0948,27.54,-5.8275410187159205,-1.2709183673469369,64
1764361909.194733,21401,1.0948,28.33,-5.8275410187159205,-0.4809183673469377,63
1764361909.2966702,21501,1.0948,28.19,-5.8275410187159205,-0.6209183673469347,62
1764361909.3989081,21601,1.0899,28.66,-6.249029006483807,-0.15091836734693587,62
1764361909.5012116,21701,1.0899,28.4,-6.249029006483807,-0.41091836734693743,61
1764361909.6036913,21801,1.0948,28.73,-5.8275410187159205,-0.08091836734693558,61
1764361909.7055666,21901,1.0899,28.66,-6.249029006483807,-0.15091836734693587,60
1764361909.8080454,22001,1.0899,28.55,-6.249029006483807,-0.2609183673469353,60
1764361909.9099867,22101,1.0899,28.33,-6.249029006483807,-0.4809183673469377,60
1764361910.0119412,22201,1.0899,28.59,-6.249029006483807,-0.22091836734693615,60
1764361910.114256,22301,1.0899,29.06,-6.249029006483807,0.2490816326530627,59
1764361910.216581,22401,1.0899,28.44,-6.249029006483807,-0.37091836734693473,58
1764361910.3195448,22501,1.0899,28.59,-6.249029006483807,-0.22091836734693615,57
1764361910.4220822,22601,1.0899,28.92,-6.249029006483807,0.1090816326530657,58
1764361910.5241885,22701,1.0899,28.73,-6.249029006483807,-0.08091836734693558,59
1764361910.626106,22801,1.0899,28.59,-6.249029006483807,-0.22091836734693615,61
1764361910.728537,22901,1.0899,28.51,-6.249029006483807,-0.30091836734693445,63
1764361910.830842,23001,1.0899,28.33,-6.249029006483807,-0.4809183673469377,65
1764361910.9327734,23101,1.0899,27.54,-6.249029006483807,-1.2709183673469369,66
1764361911.035413,23201,1.0899,29.14,-6.249029006483807,0.32908163265306456,68
1764361911.1379807,23301,1.0948,29.1,-5.8275410187159205,0.2890816326530654,68
1764361911.2398272,23401,1.0899,28.59,-6.249029006483807,-0.22091836734693615,68
1764361911.3418546,23501,1.0899,28.44,-6.249029006483807,-0.37091836734693473,68
1764361911.4437723,23601,1.0899,28.55,-6.249029006483807,-0.2609183673469353,68
1764361911.545559,23701,1.0899,28.81,-6.249029006483807,-0.0009183673469372877,68
1764361911.6480908,23801,1.0899,28.59,-6.249029006483807,-0.22091836734693615,68
1764361911.750063,23901,1.0899,28.19,-6.249029006483807,-0.6209183673469347,68
1764361911.8523183,24001,1.0899,29.1,-6.249029006483807,0.2890816326530654,68
1764361911.95564,24101,1.0948,29.03,-5.8275410187159205,0.21908163265306513,68
1764361912.0590374,24201,1.0899,27.93,-6.249029006483807,-0.8809183673469363,68
1764361912.1609032,24301,1.0948,28.81,-5.8275410187159205,-0.0009183673469372877,68
1764361912.2631853,24401,1.0948,28.04,-5.8275410187159205,-0.7709183673469369,68
1764361912.366167,24501,1.0899,28.51,-6.249029006483807,-0.30091836734693445,68
1764361912.4687657,24601,1.0997,28.92,-5.406053030948033,0.1090816326530657,68
1764361912.5706818,24701,1.0948,28.88,-5.8275410187159205,0.069081632653063,68
1764361912.673394,24801,1.0899,28.73,-6.249029006483807,-0.08091836734693558,68
1764361912.7771487,24901,1.0899,28.26,-6.249029006483807,-0.5509183673469344,68
1764361912.87888,25001,1.085,27.82,-6.670516994251714,-0.9909183673469357,68
1764361912.98089,25101,1.0948,28.04,-5.8275410187159205,-0.7709183673469369,68
1764361913.0827558,25201,1.0948,27.68,-5.8275410187159205,-1.1309183673469363,68
1764361913.184827,25301,1.0948,28.08,-5.8275410187159205,-0.7309183673469377,68
1764361913.2869928,25401,1.0948,28.92,-5.8275410187159205,0.1090816326530657,68
1764361913.389034,25501,1.0948,28.22,-5.8275410187159205,-0.5909183673469371,68
1764361913.4914222,25601,1.0948,27.82,-5.8275410187159205,-0.9909183673469357,68
1764361913.5933924,25701,1.0948,28.37,-5.8275410187159205,-0.440918367346935,68
1764361913.6957061,25801,1.0948,28.81,-5.8275410187159205,-0.0009183673469372877,68
1764361913.798073,25901,1.0948,28.15,-5.8275410187159205,-0.6609183673469374,68
1764361913.9008112,26001,1.0899,28.62,-6.249029006483807,-0.19091836734693501,68
1764361914.003432,26101,1.0899,28.7,-6.249029006483807,-0.11091836734693672,68
1764361914.1052687,26201,1.0948,27.82,-5.8275410187159205,-0.9909183673469357,68
1764361914.2077973,26301,1.0948,28.84,-5.8275410187159205,0.02908163265306385,68
1764361914.3099737,26401,1.0948,28.48,-5.8275410187159205,-0.3309183673469356,68
1764361914.412123,26501,1.0997,28.29,-5.406053030948033,-0.5209183673469369,68
1764361914.5295808,26601,1.0899,28.77,-6.249029006483807,-0.040918367346936435,68
1764361914.6318643,26701,1.0899,27.68,-6.249029006483807,-1.1309183673469363,68
1764361914.734465,26801,1.0899,28.66,-6.249029006483807,-0.15091836734693587,68
1764361914.8366628,26901,1.0948,29.1,-5.8275410187159205,0.2890816326530654,68
1764361914.9386573,27001,1.0948,28.7,-5.8275410187159205,-0.11091836734693672,68
1764361915.0408494,27101,1.0948,29.1,-5.8275410187159205,0.2890816326530654,68
1764361915.1429942,27201,1.0948,29.14,-5.8275410187159205,0.32908163265306456,68
1764361915.2451625,27301,1.0948,28.99,-5.8275410187159205,0.17908163265306243,68
1764361915.348175,27401,1.0948,27.82,-5.8275410187159205,-0.9909183673469357,68
1764361915.4506075,27501,1.0948,27.72,-5.8275410187159205,-1.0909183673469371,68
1764361915.55254,27601,1.0899,28.51,-6.249029006483807,-0.30091836734693445,68
1764361915.6542737,27701,1.085,28.19,-6.670516994251714,-0.6209183673469347,68
1764361915.7565513,27801,1.0899,28.29,-6.249029006483807,-0.5209183673469369,68
1764361915.858526,27901,1.0899,28.73,-6.249029006483807,-0.08091836734693558,68
1764361915.9603722,28001,1.0948,29.06,-5.8275410187159205,0.2490816326530627,68
1764361916.0623577,28101,1.0899,28.66,-6.249029006483807,-0.15091836734693587,68
1764361916.1644611,28201,1.0948,28.51,-5.8275410187159205,-0.30091836734693445,68
1764361916.2667105,28301,1.0948,28.88,-5.8275410187159205,0.069081632653063,66
1764361916.3687823,28401,1.0997,28.84,-5.406053030948033,0.02908163265306385,66
1764361916.4706244,28501,1.0948,28.19,-5.8275410187159205,-0.6209183673469347,64
1764361916.5727262,28601,1.0948,27.79,-5.8275410187159205,-1.0209183673469369,63
1764361916.6757274,28701,1.0899,28.59,-6.249029006483807,-0.22091836734693615,61
1764361916.7784727,28801,1.0948,27.82,-5.8275410187159205,-0.9909183673469357,59
1764361916.8812416,28901,1.0948,28.33,-5.8275410187159205,-0.4809183673469377,58
1764361916.9835675,29001,1.0948,28.95,-5.8275410187159205,0.13908163265306328,59
1764361917.0852585,29101,1.0899,28.59,-6.249029006483807,-0.22091836734693615,60
1764361917.1879604,29201,1.0899,28.4,-6.249029006483807,-0.41091836734693743,60
1764361917.29021,29301,1.0948,27.79,-5.8275410187159205,-1.0209183673469369,61
1764361917.3922415,29401,1.0997,28.81,-5.406053030948033,-0.0009183673469372877,62
1764361917.4946907,29501,1.0948,28.81,-5.8275410187159205,-0.0009183673469372877,62
1764361917.597726,29601,1.0948,28.33,-5.8275410187159205,-0.4809183673469377,61
1764361917.70029,29701,1.0948,28.26,-5.8275410187159205,-0.5509183673469344,60
1764361917.802092,29801,1.0948,28.04,-5.8275410187159205,-0.7709183673469369,60
1764361917.9045362,29901,1.0997,29.14,-5.406053030948033,0.32908163265306456,59
1764361918.006564,30001,1.0948,28.44,-5.8275410187159205,-0.37091836734693473,58
1764361918.1083505,30101,1.0899,28.66,-6.249029006483807,-0.15091836734693587,57
1764361918.2102203,30201,1.0899,28.59,-6.249029006483807,-0.22091836734693615,56
1764361918.312322,30301,1.0948,28.44,-5.8275410187159205,-0.37091836734693473,55
1764361918.4173884,30401,1.085,28.04,-6.670516994251714,-0.7709183673469369,55
1764361918.519577,30501,1.0899,28.04,-6.249029006483807,-0.7709183673469369,55
1764361918.6216261,30601,1.0899,28.62,-6.249029006483807,-0.19091836734693501,55
1764361918.7233086,30701,1.0899,28.7,-6.249029006483807,-0.11091836734693672,55
1764361918.825653,30801,1.0948,28.7,-5.8275410187159205,-0.11091836734693672,54
1764361918.9279516,30901,1.0948,28.29,-5.8275410187159205,-0.5209183673469369,53
1764361919.030409,31001,1.0948,28.66,-5.8275410187159205,-0.15091836734693587,53
1764361919.1324646,31101,1.0948,28.48,-5.8275410187159205,-0.3309183673469356,52
1764361919.2342348,31201,1.0948,29.1,-5.8275410187159205,0.2890816326530654,51
1764361919.336835,31301,1.0948,29.06,-5.8275410187159205,0.2490816326530627,51
1764361919.4403832,31401,1.0899,28.77,-6.249029006483807,-0.040918367346936435,51
1764361919.5430603,31501,1.0948,28.04,-5.8275410187159205,-0.7709183673469369,51
1764361919.6450706,31601,1.0948,27.54,-5.8275410187159205,-1.2709183673469369,52
1764361919.7477634,31701,1.0948,27.97,-5.8275410187159205,-0.8409183673469371,54
1764361919.8502214,31801,1.0948,28.92,-5.8275410187159205,0.1090816326530657,56
1764361919.9528487,31901,1.0948,28.81,-5.8275410187159205,-0.0009183673469372877,58
1764361920.0545466,32001,1.0948,28.81,-5.8275410187159205,-0.0009183673469372877,60
1764361920.156794,32101,1.0948,28.7,-5.8275410187159205,-0.11091836734693672,62
1764361920.258499,32201,1.0948,28.55,-5.8275410187159205,-0.2609183673469353,62
1764361920.3603292,32301,1.1046,29.03,-4.984565043180127,0.21908163265306513,62
1764361920.463517,32401,1.0948,28.62,-5.8275410187159205,-0.19091836734693501,61
1764361920.566085,32501,1.0899,28.51,-6.249029006483807,-0.30091836734693445,61
1764361920.6686375,32601,1.0948,29.1,-5.8275410187159205,0.2890816326530654,60
1764361920.77104,32701,1.0948,28.04,-5.8275410187159205,-0.7709183673469369,60
1764361920.8730736,32801,1.0948,28.81,-5.8275410187159205,-0.0009183673469372877,60
1764361920.9749885,32901,1.0899,28.7,-6.249029006483807,-0.11091836734693672,60
1764361921.0766838,33001,1.0997,28.92,-5.406053030948033,0.1090816326530657,60
1764361921.1788924,33101,1.0948,28.88,-5.8275410187159205,0.069081632653063,60
1764361921.2810824,33201,1.0948,28.66,-5.8275410187159205,-0.15091836734693587,60
1764361921.3827178,33301,1.0948,28.84,-5.8275410187159205,0.02908163265306385,60
1764361921.4847555,33401,1.0997,28.88,-5.406053030948033,0.069081632653063,60
1764361921.5866957,33501,1.0948,28.44,-5.8275410187159205,-0.37091836734693473,60
1764361921.6885157,33601,1.0948,29.03,-5.8275410187159205,0.21908163265306513,60
1764361921.7913127,33701,1.0899,28.62,-6.249029006483807,-0.19091836734693501,60
1764361921.8937466,33801,1.0948,28.77,-5.8275410187159205,-0.040918367346936435,60
1764361921.9958262,33901,1.0948,28.26,-5.8275410187159205,-0.5509183673469344,60
1764361922.0975804,34001,1.0948,28.44,-5.8275410187159205,-0.37091836734693473,60
1764361922.1994636,34101,1.0948,28.77,-5.8275410187159205,-0.040918367346936435,60
1764361922.3013592,34201,1.0948,27.97,-5.8275410187159205,-0.8409183673469371,60
1764361922.4029953,34301,1.0948,28.22,-5.8275410187159205,-0.5909183673469371,60
1764361922.5053422,34401,1.0948,28.48,-5.8275410187159205,-0.3309183673469356,60
1764361922.6074471,34501,1.0948,28.84,-5.8275410187159205,0.02908163265306385,60
1764361922.7093315,34601,1.0997,29.03,-5.406053030948033,0.21908163265306513,60
1764361922.8119657,34701,1.0948,28.29,-5.8275410187159205,-0.5209183673469369,60
1764361922.9152904,34801,1.0948,29.1,-5.8275410187159205,0.2890816326530654,60
1764361923.0178597,34901,1.0948,28.81,-5.8275410187159205,-0.0009183673469372877,60
1764361923.1200182,35001,1.0948,28.48,-5.8275410187159205,-0.3309183673469356,60
1764361923.2217956,35101,1.0948,27.82,-5.8275410187159205,-0.9909183673469357,60
1764361923.3239324,35201,1.0899,28.51,-6.249029006483807,-0.30091836734693445,60
1764361923.425813,35301,1.0948,27.97,-5.8275410187159205,-0.8409183673469371,60
1764361923.528076,35401,1.0948,28.62,-5.8275410187159205,-0.19091836734693501,60
1764361923.6306903,35501,1.0948,28.92,-5.8275410187159205,0.1090816326530657,60
1764361923.7337332,35601,1.0899,28.88,-6.249029006483807,0.069081632653063,60
1764361923.8356578,35701,1.085,27.68,-6.670516994251714,-1.1309183673469363,60
1764361923.9379904,35801,1.0948,28.04,-5.8275410187159205,-0.7709183673469369,60
1764361924.039679,35901,1.0899,28.55,-6.249029006483807,-0.2609183673469353,60
1764361924.1416895,36001,1.0948,28.81,-5.8275410187159205,-0.0009183673469372877,60
1764361924.2444184,36101,1.0997,29.03,-5.406053030948033,0.21908163265306513,60
1764361924.3463314,36201,1.1046,28.95,-4.984565043180127,0.13908163265306328,60
1764361924.448334,36301,1.0997,29.1,-5.406053030948033,0.2890816326530654,60
1764361924.5504377,36401,1.0997,28.88,-5.406053030948033,0.069081632653063,60
1764361924.6529799,36501,1.0948,28.04,-5.8275410187159205,-0.7709183673469369,60
1764361924.7585902,36601,1.0948,28.77,-5.8275410187159205,-0.040918367346936435,60
1764361924.8614259,36701,1.0948,28.11,-5.8275410187159205,-0.7009183673469366,60
1764361924.9635453,36801,1.0948,28.29,-5.8275410187159205,-0.5209183673469369,60
1764361925.0663755,36901,1.0948,29.03,-5.8275410187159205,0.21908163265306513,60
1764361925.168878,37001,1.0948,29.06,-5.8275410187159205,0.2490816326530627,60
1764361925.2715197,37101,1.0899,28.77,-6.249029006483807,-0.040918367346936435,60
1764361925.3741086,37201,1.0899,28.99,-6.249029006483807,0.17908163265306243,60
1764361925.4764895,37301,1.0948,28.11,-5.8275410187159205,-0.7009183673469366,60
1764361925.5789294,37401,1.0948,28.37,-5.8275410187159205,-0.440918367346935,60
1764361925.6809983,37501,1.0948,27.68,-5.8275410187159205,-1.1309183673469363,60
1764361925.7825456,37601,1.0997,28.04,-5.406053030948033,-0.7709183673469369,60
1764361925.8884041,37701,1.0948,28.44,-5.8275410187159205,-0.37091836734693473,60
1764361925.990906,37801,1.0948,28.95,-5.8275410187159205,0.13908163265306328,60
1764361926.093369,37901,1.0899,28.51,-6.249029006483807,-0.30091836734693445,60
1764361926.195632,38001,1.0948,28.4,-5.8275410187159205,-0.41091836734693743,60
1764361926.2974057,38101,1.0948,27.79,-5.8275410187159205,-1.0209183673469369,60
1764361926.399562,38201,1.0948,28.26,-5.8275410187159205,-0.5509183673469344,60
1764361926.5024853,38301,1.0997,29.14,-5.406053030948033,0.32908163265306456,60
1764361926.6044886,38401,1.1046,29.03,-4.984565043180127,0.21908163265306513,60
1764361926.706679,38501,1.0948,27.93,-5.8275410187159205,-0.8809183673469363,56
1764361926.8089244,38601,1.0948,28.7,-5.8275410187159205,-0.11091836734693672,52
1764361926.9109354,38701,1.0997,27.93,-5.406053030948033,-0.8809183673469363,49
1764361927.0227444,38801,1.1046,28.92,-4.984565043180127,0.1090816326530657,45
1764361927.1247523,38901,1.0899,28.66,-6.249029006483807,-0.15091836734693587,41
1764361927.226634,39001,1.0899,28.92,-6.249029006483807,0.1090816326530657,41
1764361927.3305302,39101,1.0948,29.14,-5.8275410187159205,0.32908163265306456,41
1764361927.432532,39201,1.0948,28.77,-5.8275410187159205,-0.040918367346936435,40
1764361927.534606,39301,1.0948,28.81,-5.8275410187159205,-0.0009183673469372877,40
1764361927.636449,39401,1.0948,28.26,-5.8275410187159205,-0.5509183673469344,40
1764361927.7385511,39501,1.0948,28.37,-5.8275410187159205,-0.440918367346935,40
1764361927.8413308,39601,1.0948,28.77,-5.8275410187159205,-0.040918367346936435,40
1764361927.9439604,39701,1.0948,28.15,-5.8275410187159205,-0.6609183673469374,40
1764361928.0455635,39801,1.0948,28.88,-5.8275410187159205,0.069081632653063,41
1764361928.1481297,39901,1.0948,28.11,-5.8275410187159205,-0.7009183673469366,42
1764361928.250001,40001,1.0948,28.95,-5.8275410187159205,0.13908163265306328,43
1764361928.3519158,40101,1.0948,28.77,-5.8275410187159205,-0.040918367346936435,45
1764361928.4539566,40201,1.0948,28.26,-5.8275410187159205,-0.5509183673469344,46
1764361928.5557094,40301,1.0948,27.54,-5.8275410187159205,-1.2709183673469369,46
1764361928.6581585,40401,1.0997,29.14,-5.406053030948033,0.32908163265306456,46
1764361928.760636,40501,1.0997,29.03,-5.406053030948033,0.21908163265306513,46
1764361928.863344,40601,1.1046,29.03,-4.984565043180127,0.21908163265306513,46
1764361928.9652421,40701,1.0948,28.59,-5.8275410187159205,-0.22091836734693615,45
1764361929.0674798,40801,1.0948,28.51,-5.8275410187159205,-0.30091836734693445,45
1764361929.1697237,40901,1.0948,28.37,-5.8275410187159205,-0.440918367346935,44
1764361929.2722023,41001,1.0948,28.73,-5.8275410187159205,-0.08091836734693558,43
1764361929.3746474,41101,1.0948,28.81,-5.8275410187159205,-0.0009183673469372877,43
1764361929.4771926,41201,1.0997,29.06,-5.406053030948033,0.2490816326530627,43
1764361929.578904,41301,1.0948,28.66,-5.8275410187159205,-0.15091836734693587,44
1764361929.6809285,41401,1.0899,28.62,-6.249029006483807,-0.19091836734693501,44
1764361929.7829294,41501,1.0948,27.93,-5.8275410187159205,-0.8809183673469363,45
1764361929.8853137,41601,1.0948,28.33,-5.8275410187159205,-0.4809183673469377,46
1764361929.9876783,41701,1.0948,28.73,-5.8275410187159205,-0.08091836734693558,47
1764361930.0905137,41801,1.0948,28.88,-5.8275410187159205,0.069081632653063,47
1764361930.1932898,41901,1.0948,28.19,-5.8275410187159205,-0.6209183673469347,47
1764361930.295607,42001,1.0948,27.68,-5.8275410187159205,-1.1309183673469363,47
1764361930.397958,42101,1.0899,28.55,-6.249029006483807,-0.2609183673469353,47
1764361930.500701,42201,1.0948,28.44,-5.8275410187159205,-0.37091836734693473,46
1764361930.6026702,42301,1.0948,28.29,-5.8275410187159205,-0.5209183673469369,46
1764361930.7051067,42401,1.0948,27.75,-5.8275410187159205,-1.060918367346936,46
1764361930.809388,42501,1.1046,28.99,-4.984565043180127,0.17908163265306243,46
1764361930.911972,42601,1.0948,28.26,-5.8275410187159205,-0.5509183673469344,46
1764361931.0140111,42701,1.0948,28.19,-5.8275410187159205,-0.6209183673469347,46
1764361931.217892,126901,1.1095,28.19,-4.563077055412239,-0.6209183673469347,46
1764361931.421573,126601,1.1046,28.26,-4.984565043180127,-0.5509183673469344,45
1764361931.5237372,126701,1.1144,28.73,-4.1415890676443325,-0.08091836734693558,45
1764361931.6261039,126801,1.1095,28.77,-4.563077055412239,-0.040918367346936435,45
1764361931.7281961,126901,1.1095,28.19,-4.563077055412239,-0.6209183673469347,44
1764361931.9331663,126601,1.1046,28.26,-4.984565043180127,-0.5509183673469344,43
1764361932.0356624,126701,1.1144,28.73,-4.1415890676443325,-0.08091836734693558,43
1764361932.1381288,126801,1.1095,28.77,-4.563077055412239,-0.040918367346936435,44
1764361932.240792,126901,1.1095,28.19,-4.563077055412239,-0.6209183673469347,44
1764361932.3430252,127001,1.1095,28.77,-4.563077055412239,-0.040918367346936435,45
1764361932.445561,127101,1.1095,28.48,-4.563077055412239,-0.3309183673469356,46
1764361932.5474038,127201,1.1095,28.73,-4.563077055412239,-0.08091836734693558,46
1764361932.6497076,127301,1.1095,28.66,-4.563077055412239,-0.15091836734693587,46
1764361932.7521644,127401,1.1144,28.51,-4.1415890676443325,-0.30091836734693445,46
1764361932.8549998,127501,1.1144,29.14,-4.1415890676443325,0.32908163265306456,46
1764361932.9577973,127601,1.1095,28.33,-4.563077055412239,-0.4809183673469377,46
1764361933.0594676,127701,1.1144,28.88,-4.1415890676443325,0.069081632653063,46
1764361933.161824,127801,1.1046,27.82,-4.984565043180127,-0.9909183673469357,46
1764361933.2635994,127901,1.1144,28.99,-4.1415890676443325,0.17908163265306243,46
1764361933.3664403,128001,1.1144,29.1,-4.1415890676443325,0.2890816326530654,46
1764361933.4685574,128101,1.1144,28.44,-4.1415890676443325,-0.37091836734693473,46
1764361933.5721335,128201,1.1144,27.54,-4.1415890676443325,-1.2709183673469369,46
1764361933.674241,128301,1.1144,28.88,-4.1415890676443325,0.069081632653063,46
1764361933.776036,128401,1.1095,28.04,-4.563077055412239,-0.7709183673469369,46
1764361933.877705,128501,1.1095,28.7,-4.563077055412239,-0.11091836734693672,45
1764361933.9799473,128601,1.1144,28.92,-4.1415890676443325,0.1090816326530657,44
1764361934.0820763,128701,1.1144,28.95,-4.1415890676443325,0.13908163265306328,43
1764361934.184234,128801,1.1144,28.7,-4.1415890676443325,-0.11091836734693672,41
1764361934.286827,128901,1.1144,28.4,-4.1415890676443325,-0.41091836734693743,41
1764361934.3891213,129001,1.1144,28.08,-4.1415890676443325,-0.7309183673469377,41
1764361934.4917274,129101,1.1144,28.84,-4.1415890676443325,0.02908163265306385,51
1764361934.594004,129201,1.1144,28.59,-4.1415890676443325,-0.22091836734693615,61
1764361934.6965284,129301,1.1144,28.92,-4.1415890676443325,0.1090816326530657,70
1764361934.7986968,129401,1.1095,28.59,-4.563077055412239,-0.22091836734693615,79
1764361934.9011486,129501,1.1095,28.81,-4.563077055412239,-0.0009183673469372877,88
1764361935.00419,129601,1.1095,27.82,-4.563077055412239,-0.9909183673469357,87
1764361935.1081822,129701,1.1144,28.59,-4.1415890676443325,-0.22091836734693615,86
1764361935.210664,129801,1.1144,28.77,-4.1415890676443325,-0.040918367346936435,85
1764361935.3125362,129901,1.1144,28.51,-4.1415890676443325,-0.30091836734693445,85
1764361935.4157257,130001,1.1193,28.95,-3.7201010798764456,0.13908163265306328,85
1764361935.5177376,130101,1.1095,28.29,-4.563077055412239,-0.5209183673469369,83
1764361935.6200304,130201,1.1095,27.75,-4.563077055412239,-1.060918367346936,82
1764361935.7225194,130301,1.1095,29.1,-4.563077055412239,0.2890816326530654,80
1764361935.8246436,130401,1.1144,27.54,-4.1415890676443325,-1.2709183673469369,78
1764361935.926286,130501,1.1095,28.48,-4.563077055412239,-0.3309183673469356,76
1764361936.0278733,130601,1.1144,28.81,-4.1415890676443325,-0.0009183673469372877,76
1764361936.1300418,130701,1.1095,28.26,-4.563077055412239,-0.5509183673469344,77
1764361936.2321148,130801,1.1144,28.99,-4.1415890676443325,0.17908163265306243,78
1764361936.334426,130901,1.1144,29.14,-4.1415890676443325,0.32908163265306456,78
1764361936.4395428,131001,1.1144,27.97,-4.1415890676443325,-0.8409183673469371,79
1764361936.5416348,131101,1.1144,28.66,-4.1415890676443325,-0.15091836734693587,79
1764361936.6437464,131201,1.1095,28.15,-4.563077055412239,-0.6609183673469374,79
1764361936.7459748,131301,1.1144,28.04,-4.1415890676443325,-0.7709183673469369,79
1764361936.8479238,131401,1.1144,28.92,-4.1415890676443325,0.1090816326530657,79
1764361936.9496844,131501,1.1095,28.77,-4.563077055412239,-0.040918367346936435,80
1764361937.052357,131601,1.1095,28.73,-4.563077055412239,-0.08091836734693558,80
1764361937.1551294,131701,1.1095,28.4,-4.563077055412239,-0.41091836734693743,80
1764361937.257393,131801,1.1095,28.7,-4.563077055412239,-0.11091836734693672,80
1764361937.3600273,131901,1.1144,28.81,-4.1415890676443325,-0.0009183673469372877,78
1764361937.4624052,132001,1.1144,28.4,-4.1415890676443325,-0.41091836734693743,77
1764361937.564738,132101,1.1144,29.1,-4.1415890676443325,0.2890816326530654,75
1764361937.6675317,132201,1.1144,27.93,-4.1415890676443325,-0.8809183673469363,73
1764361937.770248,132301,1.1193,28.99,-3.7201010798764456,0.17908163265306243,71
1764361937.8728232,132401,1.1144,28.88,-4.1415890676443325,0.069081632653063,69
1764361937.975323,132501,1.1144,28.55,-4.1415890676443325,-0.2609183673469353,68
1764361938.077289,132601,1.1144,28.66,-4.1415890676443325,-0.15091836734693587,67
1764361938.1794062,132701,1.1144,28.77,-4.1415890676443325,-0.040918367346936435,65
1764361938.2814097,132801,1.1144,28.4,-4.1415890676443325,-0.41091836734693743,64
1764361938.3830326,132901,1.1144,28.95,-4.1415890676443325,0.13908163265306328,64
1764361938.4856765,133001,1.1144,28.95,-4.1415890676443325,0.13908163265306328,64
1764361938.5881302,133101,1.1144,28.73,-4.1415890676443325,-0.08091836734693558,64
1764361938.6900816,133201,1.1144,27.68,-4.1415890676443325,-1.1309183673469363,64
1764361938.7925224,133301,1.1144,28.19,-4.1415890676443325,-0.6209183673469347,64
1764361938.8953867,133401,1.1144,28.0,-4.1415890676443325,-0.810918367346936,64
1764361938.9977112,133501,1.1095,28.55,-4.563077055412239,-0.2609183673469353,64
1764361939.0995274,133601,1.1144,28.88,-4.1415890676443325,0.069081632653063,64
1764361939.2020915,133701,1.1144,28.4,-4.1415890676443325,-0.41091836734693743,64
1764361939.304283,133801,1.1144,28.62,-4.1415890676443325,-0.19091836734693501,64
1764361939.407705,133901,1.1144,29.06,-4.1415890676443325,0.2490816326530627,64
1764361939.509928,134001,1.1095,28.73,-4.563077055412239,-0.08091836734693558,63
1764361939.612334,134101,1.1095,28.29,-4.563077055412239,-0.5209183673469369,62
1764361939.7144454,134201,1.1095,28.7,-4.563077055412239,-0.11091836734693672,61
1764361939.8163772,134301,1.1144,29.1,-4.1415890676443325,0.2890816326530654,60
1764361939.9190192,134401,1.1144,28.0,-4.1415890676443325,-0.810918367346936,59
1764361940.0215812,134501,1.1095,28.44,-4.563077055412239,-0.37091836734693473,62
1764361940.12374,134601,1.1095,28.66,-4.563077055412239,-0.15091836734693587,64
1764361940.2257833,134701,1.1144,29.1,-4.1415890676443325,0.2890816326530654,66
1764361940.3275385,134801,1.1144,28.59,-4.1415890676443325,-0.22091836734693615,68
1764361940.429541,134901,1.1144,28.22,-4.1415890676443325,-0.5909183673469371,71
1764361940.5317361,135001,1.1193,28.81,-3.7201010798764456,-0.0009183673469372877,71
1764361940.634328,135101,1.0997,27.97,-5.406053030948033,-0.8409183673469371,71
1764361940.7371166,135201,1.1144,28.37,-4.1415890676443325,-0.440918367346935,71
1764361940.8391323,135301,1.1144,27.82,-4.1415890676443325,-0.9909183673469357,71
1764361940.941366,135401,1.1144,28.19,-4.1415890676443325,-0.6209183673469347,72
1764361941.043611,135501,1.1095,28.19,-4.563077055412239,-0.6209183673469347,72
1764361941.1457334,135601,1.1095,28.88,-4.563077055412239,0.069081632653063,72
1764361941.2482936,135701,1.1144,29.03,-4.1415890676443325,0.21908163265306513,72
1764361941.3508706,135801,1.1193,28.99,-3.7201010798764456,0.17908163265306243,72
1764361941.4534461,135901,1.1144,27.68,-4.1415890676443325,-1.1309183673469363,72
1764361941.5554035,136001,1.1144,28.15,-4.1415890676443325,-0.6609183673469374,72
1764361941.668141,136101,1.1144,28.22,-4.1415890676443325,-0.5909183673469371,72
1764361941.770849,136201,1.1144,28.59,-4.1415890676443325,-0.22091836734693615,72
1764361941.873101,136301,1.1144,29.1,-4.1415890676443325,0.2890816326530654,72
1764361941.975329,136401,1.1144,28.19,-4.1415890676443325,-0.6209183673469347,72
1764361942.0772543,136501,1.1144,28.04,-4.1415890676443325,-0.7709183673469369,72
1764361942.1795993,136601,1.1144,28.37,-4.1415890676443325,-0.440918367346935,72
1764361942.2817466,136701,1.1144,29.1,-4.1415890676443325,0.2890816326530654,72
1764361942.3853893,136801,1.1144,28.77,-4.1415890676443325,-0.040918367346936435,72
1764361942.4881103,136901,1.1144,28.99,-4.1415890676443325,0.17908163265306243,72
1764361942.5899937,137001,1.1144,28.92,-4.1415890676443325,0.1090816326530657,72
1764361942.6920927,137101,1.1144,28.88,-4.1415890676443325,0.069081632653063,72
1764361942.7944677,137201,1.1144,29.1,-4.1415890676443325,0.2890816326530654,72
1764361942.8969572,137301,1.1144,28.84,-4.1415890676443325,0.02908163265306385,72
1764361942.999178,137401,1.1144,28.44,-4.1415890676443325,-0.37091836734693473,72
1764361943.101167,137501,1.1144,28.4,-4.1415890676443325,-0.41091836734693743,72
1764361943.2049084,137601,1.1144,29.1,-4.1415890676443325,0.2890816326530654,72
1764361943.3071008,137701,1.1095,28.15,-4.563077055412239,-0.6609183673469374,72
1764361943.4089544,137801,1.1144,28.22,-4.1415890676443325,-0.5909183673469371,72
1764361943.5109255,137901,1.1193,28.99,-3.7201010798764456,0.17908163265306243,72
1764361943.6134572,138001,1.1144,28.84,-4.1415890676443325,0.02908163265306385,72
1764361943.7159555,138101,1.1095,28.48,-4.563077055412239,-0.3309183673469356,72
1764361943.8188436,138201,1.1193,29.03,-3.7201010798764456,0.21908163265306513,72
1764361943.9214382,138301,1.1144,29.06,-4.1415890676443325,0.2490816326530627,72
1764361944.0239873,138401,1.1193,28.92,-3.7201010798764456,0.1090816326530657,72
1764361944.1270568,138501,1.1095,28.62,-4.563077055412239,-0.19091836734693501,72
1764361944.2288496,138601,1.1144,27.64,-4.1415890676443325,-1.1709183673469354,72
1764361944.3315892,138701,1.1095,28.59,-4.563077055412239,-0.22091836734693615,72
1764361944.434585,138801,1.1144,28.88,-4.1415890676443325,0.069081632653063,72
1764361944.5379055,138901,1.1046,28.19,-4.984565043180127,-0.6209183673469347,72
1764361944.6398706,139001,1.1144,28.99,-4.1415890676443325,0.17908163265306243,72
1764361944.7420805,139101,1.1095,28.33,-4.563077055412239,-0.4809183673469377,72
1764361944.8442304,139201,1.1193,28.99,-3.7201010798764456,0.17908163265306243,72
1764361944.9462178,139301,1.1144,28.88,-4.1415890676443325,0.069081632653063,72
1764361945.0485642,139401,1.1095,27.75,-4.563077055412239,-1.060918367346936,72
1764361945.1505668,139501,1.1144,28.88,-4.1415890676443325,0.069081632653063,72
1764361945.2526293,139601,1.1144,28.88,-4.1415890676443325,0.069081632653063,72
1764361945.355228,139701,1.1095,28.33,-4.563077055412239,-0.4809183673469377,72
1764361945.4571466,139801,1.1144,27.82,-4.1415890676443325,-0.9909183673469357,72
1764361945.5594459,139901,1.1144,28.66,-4.1415890676443325,-0.15091836734693587,72
1764361945.6612575,140001,1.1144,28.7,-4.1415890676443325,-0.11091836734693672,72
1764361945.7637796,140101,1.1144,28.73,-4.1415890676443325,-0.08091836734693558,72
1764361945.866452,140201,1.1095,28.44,-4.563077055412239,-0.37091836734693473,72
1764361945.9686644,140301,1.1144,29.1,-4.1415890676443325,0.2890816326530654,72
1764361946.0713387,140401,1.1193,29.03,-3.7201010798764456,0.21908163265306513,72
1764361946.1729956,140501,1.1144,27.54,-4.1415890676443325,-1.2709183673469369,72
1764361946.2746804,140601,1.1144,28.59,-4.1415890676443325,-0.22091836734693615,72
1764361946.3771312,140701,1.1144,28.4,-4.1415890676443325,-0.41091836734693743,72
1764361946.479844,140801,1.1144,28.4,-4.1415890676443325,-0.41091836734693743,72
1764361946.5828497,140901,1.1144,28.88,-4.1415890676443325,0.069081632653063,72
1764361946.6846116,141001,1.1144,28.88,-4.1415890676443325,0.069081632653063,72
1764361946.7869074,141101,1.1144,28.04,-4.1415890676443325,-0.7709183673469369,72
1764361946.8886702,141201,1.1095,28.84,-4.563077055412239,0.02908163265306385,72
1764361946.9922779,141301,1.1144,27.54,-4.1415890676443325,-1.2709183673469369,72
1764361947.095124,141401,1.1144,28.44,-4.1415890676443325,-0.37091836734693473,72
1764361947.198311,141501,1.1144,29.1,-4.1415890676443325,0.2890816326530654,72
1764361947.3005478,141601,1.1095,28.22,-4.563077055412239,-0.5909183673469371,72
1764361947.4023867,141701,1.1095,28.29,-4.563077055412239,-0.5209183673469369,72
1764361947.50436,141801,1.1095,28.55,-4.563077055412239,-0.2609183673469353,72
1764361947.6062238,141901,1.1144,27.97,-4.1415890676443325,-0.8409183673469371,72
1764361947.7081516,142001,1.1241,28.99,-3.3072148877772705,0.17908163265306243,72
1764361947.8105989,142101,1.1144,27.57,-4.1415890676443325,-1.2409183673469357,72
1764361947.9120271,142201,1.1144,28.95,-4.1415890676443325,0.13908163265306328,66
1764361948.0138664,142301,1.1144,28.11,-4.1415890676443325,-0.7009183673469366,60
1764361948.1166341,142401,1.1144,28.48,-4.1415890676443325,-0.3309183673469356,54
1764361948.2188313,142501,1.1144,27.68,-4.1415890676443325,-1.1309183673469363,48
1764361948.3215568,142601,1.1144,28.62,-4.1415890676443325,-0.19091836734693501,42
1764361948.4234335,142701,1.1046,28.11,-4.984565043180127,-0.7009183673469366,42
1764361948.5259683,142801,1.1144,28.7,-4.1415890676443325,-0.11091836734693672,42
1764361948.628762,142901,1.1144,28.77,-4.1415890676443325,-0.040918367346936435,42
1764361948.731479,143001,1.0948,27.9,-5.8275410187159205,-0.9109183673469374,42
1764361948.8338277,143101,1.1095,28.48,-4.563077055412239,-0.3309183673469356,42
1764361948.9358103,143201,1.0948,27.61,-5.8275410187159205,-1.2009183673469366,42
1764361949.037854,143301,1.0997,28.04,-5.406053030948033,-0.7709183673469369,42
1764361949.1397598,143401,1.1144,28.99,-4.1415890676443325,0.17908163265306243,42
1764361949.2418268,143501,1.1144,29.14,-4.1415890676443325,0.32908163265306456,42
1764361949.3441603,143601,1.1144,28.77,-4.1415890676443325,-0.040918367346936435,42
1764361949.4471347,143701,1.1144,27.68,-4.1415890676443325,-1.1309183673469363,42
1764361949.5491738,143801,1.1144,28.26,-4.1415890676443325,-0.5509183673469344,42
1764361949.6511903,143901,1.1193,29.1,-3.7201010798764456,0.2890816326530654,42
1764361949.7538347,144001,1.1144,28.48,-4.1415890676443325,-0.3309183673469356,42
1764361949.8555148,144101,1.1144,28.88,-4.1415890676443325,0.069081632653063,41
1764361949.9583688,144201,1.1095,28.26,-4.563077055412239,-0.5509183673469344,41
1764361950.0614197,144301,1.1144,28.81,-4.1415890676443325,-0.0009183673469372877,40
1764361950.1636305,144401,1.1144,28.84,-4.1415890676443325,0.02908163265306385,40
1764361950.2658422,144501,1.1144,28.99,-4.1415890676443325,0.17908163265306243,40
1764361950.367778,144601,1.1095,28.26,-4.563077055412239,-0.5509183673469344,40
1764361950.4696295,144701,1.1095,28.19,-4.563077055412239,-0.6209183673469347,40
1764361950.5718114,144801,1.0948,27.39,-5.8275410187159205,-1.4209183673469354,40
1764361950.674302,144901,1.1144,28.04,-4.1415890676443325,-0.7709183673469369,40
1764361950.7764075,145001,1.1095,28.26,-4.563077055412239,-0.5509183673469344,40
1764361950.8787694,145101,1.1144,27.97,-4.1415890676443325,-0.8409183673469371,40
1764361950.9810264,145201,1.1046,28.15,-4.984565043180127,-0.6609183673469374,40
1764361951.082866,145301,1.1144,28.04,-4.1415890676443325,-0.7709183673469369,40
1764361951.1847672,145401,1.1095,28.73,-4.563077055412239,-0.08091836734693558,40
1764361951.2887554,145501,1.1144,28.84,-4.1415890676443325,0.02908163265306385,40
1764361951.391296,145601,1.1144,28.84,-4.1415890676443325,0.02908163265306385,40
1764361951.4943204,145701,1.1144,29.1,-4.1415890676443325,0.2890816326530654,41
1764361951.5965297,145801,1.1144,29.03,-4.1415890676443325,0.21908163265306513,41
1764361951.6984873,145901,1.1193,29.1,-3.7201010798764456,0.2890816326530654,42
1764361951.8007038,146001,1.1144,28.44,-4.1415890676443325,-0.37091836734693473,42
1764361951.9029107,146101,1.1144,28.51,-4.1415890676443325,-0.30091836734693445,42
1764361952.0049222,146201,1.1144,28.4,-4.1415890676443325,-0.41091836734693743,41
1764361952.107625,146301,1.1144,29.1,-4.1415890676443325,0.2890816326530654,40
1764361952.2093418,146401,1.1144,28.29,-4.1415890676443325,-0.5209183673469369,40
1764361952.3123298,146501,1.1144,27.68,-4.1415890676443325,-1.1309183673469363,40
1764361952.4145498,146601,1.1144,28.04,-4.1415890676443325,-0.7709183673469369,40
1764361952.5172005,146701,1.1144,28.95,-4.1415890676443325,0.13908163265306328,40
1764361952.6208208,146801,1.1144,27.57,-4.1415890676443325,-1.2409183673469357,40
1764361952.7230713,146901,1.1095,28.48,-4.563077055412239,-0.3309183673469356,40
1764361952.8260317,147001,1.1144,28.04,-4.1415890676443325,-0.7709183673469369,40
1764361952.92869,147101,1.1193,28.95,-3.7201010798764456,0.13908163265306328,40
1764361953.0309148,147201,1.1095,28.77,-4.563077055412239,-0.040918367346936435,40
1764361953.1328154,147301,1.1046,27.79,-4.984565043180127,-1.0209183673469369,40
1764361953.234685,147401,1.1095,28.4,-4.563077055412239,-0.41091836734693743,40
1764361953.3368511,147501,1.1144,28.7,-4.1415890676443325,-0.11091836734693672,41
1764361953.4387777,147601,1.1144,28.84,-4.1415890676443325,0.02908163265306385,41
1764361953.5406797,147701,1.1144,27.79,-4.1415890676443325,-1.0209183673469369,41
1764361953.6425993,147801,1.1144,28.92,-4.1415890676443325,0.1090816326530657,41
1764361953.744673,147901,1.1095,28.33,-4.563077055412239,-0.4809183673469377,41
1764361953.8468003,148001,1.1144,28.0,-4.1415890676443325,-0.810918367346936,41
1764361953.949159,148101,1.1095,28.88,-4.563077055412239,0.069081632653063,41
1764361954.0512257,148201,1.1095,28.77,-4.563077055412239,-0.040918367346936435,41
1764361954.1536133,148301,1.1095,28.04,-4.563077055412239,-0.7709183673469369,41
1764361954.255519,148401,1.1095,29.06,-4.563077055412239,0.2490816326530627,41
1764361954.3569965,148501,1.1095,28.44,-4.563077055412239,-0.37091836734693473,41
1764361954.4592774,148601,1.1095,29.03,-4.563077055412239,0.21908163265306513,41
1764361954.561835,148701,1.1046,28.04,-4.984565043180127,-0.7709183673469369,41
1764361954.6636715,148801,1.1095,27.82,-4.563077055412239,-0.9909183673469357,41
1764361954.7653284,148901,1.1144,29.1,-4.1415890676443325,0.2890816326530654,41
1764361954.8672392,149001,1.1144,27.97,-4.1415890676443325,-0.8409183673469371,41
1764361954.9690819,149101,1.1144,28.04,-4.1415890676443325,-0.7709183673469369,41
1764361955.0712116,149201,1.1144,28.55,-4.1415890676443325,-0.2609183673469353,41
1764361955.1734421,149301,1.1144,28.04,-4.1415890676443325,-0.7709183673469369,41
1764361955.276167,149401,1.1144,28.19,-4.1415890676443325,-0.6209183673469347,41
1764361955.378562,149501,1.1095,28.4,-4.563077055412239,-0.41091836734693743,41
1764361955.4803002,149601,1.1144,28.26,-4.1415890676443325,-0.5509183673469344,41
1764361955.582806,149701,1.1144,28.33,-4.1415890676443325,-0.4809183673469377,41
1764361955.6851354,149801,1.1144,28.55,-4.1415890676443325,-0.2609183673469353,41
1764361955.78719,149901,1.1144,28.59,-4.1415890676443325,-0.22091836734693615,41
1764361955.889198,150001,1.1144,28.7,-4.1415890676443325,-0.11091836734693672,41
1764361955.9930952,150101,1.1144,28.84,-4.1415890676443325,0.02908163265306385,41
1764361956.0953183,150201,1.1144,29.1,-4.1415890676443325,0.2890816326530654,41
1764361956.1977093,150301,1.1144,27.79,-4.1415890676443325,-1.0209183673469369,41
1764361956.2993639,150401,1.1144,29.06,-4.1415890676443325,0.2490816326530627,41
1764361956.4016316,150501,1.1144,28.92,-4.1415890676443325,0.1090816326530657,41
1764361956.5037653,150601,1.1144,28.37,-4.1415890676443325,-0.440918367346935,41
1764361956.6062431,150701,1.1144,28.92,-4.1415890676443325,0.1090816326530657,41
1764361956.708754,150801,1.1144,28.51,-4.1415890676443325,-0.30091836734693445,41
1764361956.8107917,150901,1.1144,28.88,-4.1415890676443325,0.069081632653063,41
1764361956.9283473,151001,1.1144,28.95,-4.1415890676443325,0.13908163265306328,41
1764361957.030667,151101,1.1144,28.44,-4.1415890676443325,-0.37091836734693473,41
1764361957.1325212,151201,1.1144,27.86,-4.1415890676443325,-0.9509183673469366,41
1764361957.233994,151301,1.1144,28.04,-4.1415890676443325,-0.7709183673469369,41
1764361957.3359034,151401,1.1144,28.51,-4.1415890676443325,-0.30091836734693445,41
1764361957.4380617,151501,1.1144,28.92,-4.1415890676443325,0.1090816326530657,41
1764361957.5428672,151601,1.1095,28.59,-4.563077055412239,-0.22091836734693615,41
1764361957.645969,151701,1.1144,28.95,-4.1415890676443325,0.13908163265306328,41
1764361957.748349,151801,1.1095,28.26,-4.563077055412239,-0.5509183673469344,41
1764361957.85027,151901,1.1095,28.51,-4.563077055412239,-0.30091836734693445,41
1764361957.9529548,152001,1.1144,28.88,-4.1415890676443325,0.069081632653063,41
1764361958.0553117,152101,1.1144,28.62,-4.1415890676443325,-0.19091836734693501,41
1764361958.158783,152201,1.1144,28.7,-4.1415890676443325,-0.11091836734693672,41
1764361958.2608716,152301,1.1095,28.77,-4.563077055412239,-0.040918367346936435,41
1764361958.3633392,152401,1.1144,28.33,-4.1415890676443325,-0.4809183673469377,41
1764361958.465513,152501,1.1193,28.99,-3.7201010798764456,0.17908163265306243,41
1764361958.5680733,152601,1.1095,28.44,-4.563077055412239,-0.37091836734693473,41
1764361958.6701705,152701,1.1144,28.99,-4.1415890676443325,0.17908163265306243,41
1764361958.7726438,152801,1.1144,28.7,-4.1415890676443325,-0.11091836734693672,41
1764361958.8749378,152901,1.1144,28.7,-4.1415890676443325,-0.11091836734693672,41
1764361958.9768307,153001,1.1144,28.7,-4.1415890676443325,-0.11091836734693672,41
1764361959.0787945,153101,1.1144,28.04,-4.1415890676443325,-0.7709183673469369,41
1764361959.1813595,153201,1.1144,29.03,-4.1415890676443325,0.21908163265306513,41
1764361959.2831006,153301,1.1144,28.7,-4.1415890676443325,-0.11091836734693672,41
1764361959.3855243,153401,1.1144,29.1,-4.1415890676443325,0.2890816326530654,41
1764361959.487596,153501,1.1144,28.88,-4.1415890676443325,0.069081632653063,41
1764361959.5909557,153601,1.1144,28.77,-4.1415890676443325,-0.040918367346936435,41
1764361959.6929176,153701,1.1144,28.84,-4.1415890676443325,0.02908163265306385,41
1764361959.7951882,153801,1.1144,28.51,-4.1415890676443325,-0.30091836734693445,41
1764361959.897662,153901,1.1144,28.22,-4.1415890676443325,-0.5909183673469371,41
1764361960.0000212,154001,1.1144,28.4,-4.1415890676443325,-0.41091836734693743,41
1764361960.1021206,154101,1.1144,28.62,-4.1415890676443325,-0.19091836734693501,41
1764361960.2041852,154201,1.1144,29.1,-4.1415890676443325,0.2890816326530654,41
1764361960.3074317,154301,1.1144,28.95,-4.1415890676443325,0.13908163265306328,41
1764361960.4100847,154401,1.1144,28.81,-4.1415890676443325,-0.0009183673469372877,41
1764361960.512361,154501,1.1144,28.22,-4.1415890676443325,-0.5909183673469371,41
1764361960.6143117,154601,1.1193,28.88,-3.7201010798764456,0.069081632653063,41
1764361960.7161283,154701,1.1144,28.88,-4.1415890676443325,0.069081632653063,41
1764361960.8186347,154801,1.1144,27.82,-4.1415890676443325,-0.9909183673469357,41
1764361960.9220335,154901,1.1144,27.68,-4.1415890676443325,-1.1309183673469363,41
1764361961.0264173,155001,1.1193,29.03,-3.7201010798764456,0.21908163265306513,41
1764361961.1289878,155101,1.1144,28.84,-4.1415890676443325,0.02908163265306385,41
1764361961.2309055,155201,1.1193,28.99,-3.7201010798764456,0.17908163265306243,41
1764361961.3331509,155301,1.1144,28.55,-4.1415890676443325,-0.2609183673469353,41
1764361961.435651,155401,1.1193,29.1,-3.7201010798764456,0.2890816326530654,41
1764361961.538224,155501,1.1144,28.51,-4.1415890676443325,-0.30091836734693445,41
1764361961.641754,155601,1.1193,28.33,-3.7201010798764456,-0.4809183673469377,41
1764361961.7439063,155701,1.1095,28.48,-4.563077055412239,-0.3309183673469356,41
1764361961.8460517,155801,1.1144,28.7,-4.1415890676443325,-0.11091836734693672,41
1764361961.9480145,155901,1.1144,28.15,-4.1415890676443325,-0.6609183673469374,41
1764361962.0500388,156001,1.1144,28.15,-4.1415890676443325,-0.6609183673469374,41
1764361962.1522496,156101,1.1144,29.1,-4.1415890676443325,0.2890816326530654,41
1764361962.2553158,156201,1.1144,28.99,-4.1415890676443325,0.17908163265306243,41
1764361962.3588543,156301,1.1046,28.62,-4.984565043180127,-0.19091836734693501,41
1764361962.4608543,156401,1.1144,28.88,-4.1415890676443325,0.069081632653063,41
1764361962.5626242,156501,1.1144,28.55,-4.1415890676443325,-0.2609183673469353,41
1764361962.6643257,156601,1.1144,27.68,-4.1415890676443325,-1.1309183673469363,41
1764361962.7666273,156701,1.1193,28.04,-3.7201010798764456,-0.7709183673469369,41
1764361962.8692486,156801,1.1144,28.29,-4.1415890676443325,-0.5209183673469369,41
1764361962.973022,156901,1.1144,28.37,-4.1415890676443325,-0.440918367346935,41
1764361963.0757582,157001,1.1144,28.04,-4.1415890676443325,-0.7709183673469369,41
1764361963.1779678,157101,1.1144,28.84,-4.1415890676443325,0.02908163265306385,41
1764361963.2798707,157201,1.1095,28.29,-4.563077055412239,-0.5209183673469369,42
1764361963.3816588,157301,1.1144,28.88,-4.1415890676443325,0.069081632653063,42
1764361963.4844384,157401,1.1095,28.26,-4.563077055412239,-0.5509183673469344,42
1764361963.5880022,157501,1.1144,28.99,-4.1415890676443325,0.17908163265306243,42
1764361963.691605,157601,1.1144,28.92,-4.1415890676443325,0.1090816326530657,42
1764361963.7934215,157701,1.1144,28.33,-4.1415890676443325,-0.4809183673469377,42
1764361963.8955631,157801,1.1144,27.68,-4.1415890676443325,-1.1309183673469363,42
1764361963.9976034,157901,1.0997,28.44,-5.406053030948033,-0.37091836734693473,42
1764361964.10031,158001,1.1095,28.62,-4.563077055412239,-0.19091836734693501,42
1764361964.203423,158101,1.1095,28.37,-4.563077055412239,-0.440918367346935,42
1764361964.305708,158201,1.1144,28.44,-4.1415890676443325,-0.37091836734693473,42
1764361964.4086802,158301,1.1095,28.55,-4.563077055412239,-0.2609183673469353,42
1764361964.5104604,158401,1.1144,28.73,-4.1415890676443325,-0.08091836734693558,42
1764361964.6129851,158501,1.1144,29.06,-4.1415890676443325,0.2490816326530627,42
1764361964.7151077,158601,1.1095,28.81,-4.563077055412239,-0.0009183673469372877,42
1764361964.8176305,158701,1.1144,27.68,-4.1415890676443325,-1.1309183673469363,42
1764361964.9211876,158801,1.1095,28.22,-4.563077055412239,-0.5909183673469371,42
1764361965.023756,158901,1.1144,28.51,-4.1415890676443325,-0.30091836734693445,42
1764361965.126088,159001,1.1144,28.22,-4.1415890676443325,-0.5909183673469371,42
1764361965.2282345,159101,1.1193,29.06,-3.7201010798764456,0.2490816326530627,42
1764361965.3303838,159201,1.1144,28.04,-4.1415890676443325,-0.7709183673469369,42
1764361965.432383,159301,1.1095,28.37,-4.563077055412239,-0.440918367346935,42
1764361965.5349176,159401,1.1144,28.88,-4.1415890676443325,0.069081632653063,42
1764361965.6382077,159501,1.1193,29.1,-3.7201010798764456,0.2890816326530654,42
1764361965.7408528,159601,1.1144,28.73,-4.1415890676443325,-0.08091836734693558,42
1764361965.8427775,159701,1.1144,28.44,-4.1415890676443325,-0.37091836734693473,42
1764361965.9447346,159801,1.1095,28.22,-4.563077055412239,-0.5909183673469371,42
1764361966.0475829,159901,1.1144,28.48,-4.1415890676443325,-0.3309183673469356,42
1764361966.149766,160001,1.1193,29.06,-3.7201010798764456,0.2490816326530627,42
1764361966.252416,160101,1.1095,28.48,-4.563077055412239,-0.3309183673469356,42
1764361966.355468,160201,1.1095,27.54,-4.563077055412239,-1.2709183673469369,42
1764361966.4578786,160301,1.1144,27.82,-4.1415890676443325,-0.9909183673469357,42
1764361966.560381,160401,1.1144,28.99,-4.1415890676443325,0.17908163265306243,42
1764361966.6627448,160501,1.1144,28.55,-4.1415890676443325,-0.2609183673469353,42
1764361966.7649577,160601,1.1144,27.82,-4.1415890676443325,-0.9909183673469357,42
1764361966.867122,160701,1.1095,27.93,-4.563077055412239,-0.8809183673469363,42
1764361966.969968,160801,1.1144,28.62,-4.1415890676443325,-0.19091836734693501,42
1764361967.072347,160901,1.1144,28.92,-4.1415890676443325,0.1090816326530657,42
1764361967.1745443,161001,1.1144,29.1,-4.1415890676443325,0.2890816326530654,42
1764361967.276905,161101,1.1095,28.26,-4.563077055412239,-0.5509183673469344,42
1764361967.3795178,161201,1.1144,28.88,-4.1415890676443325,0.069081632653063,42
1764361967.4814332,161301,1.1144,27.68,-4.1415890676443325,-1.1309183673469363,42
1764361967.583404,161401,1.1144,28.81,-4.1415890676443325,-0.0009183673469372877,42
1764361967.6867864,161501,1.1144,28.7,-4.1415890676443325,-0.11091836734693672,42
1764361967.7890856,161601,1.1144,28.62,-4.1415890676443325,-0.19091836734693501,42
1764361967.8922157,161701,1.1144,28.95,-4.1415890676443325,0.13908163265306328,42
1764361967.994239,161801,1.1144,28.7,-4.1415890676443325,-0.11091836734693672,42
1764361968.0968182,161901,1.1144,28.44,-4.1415890676443325,-0.37091836734693473,42
1764361968.1988516,162001,1.1095,28.26,-4.563077055412239,-0.5509183673469344,42
1764361968.3012776,162101,1.1144,27.72,-4.1415890676443325,-1.0909183673469371,42
1764361968.4037151,162201,1.1144,28.66,-4.1415890676443325,-0.15091836734693587,42
1764361968.5057747,162301,1.1193,27.54,-3.7201010798764456,-1.2709183673469369,42
1764361968.6078162,162401,1.1193,29.1,-3.7201010798764456,0.2890816326530654,43
1764361968.7100625,162501,1.1193,28.88,-3.7201010798764456,0.069081632653063,44
1764361968.8124163,162601,1.1144,28.77,-4.1415890676443325,-0.040918367346936435,44
1764361968.914742,162701,1.1144,29.06,-4.1415890676443325,0.2490816326530627,43
1764361969.0248954,162801,1.1144,29.1,-4.1415890676443325,0.2890816326530654,43
1764361969.1271968,162901,1.1095,28.26,-4.563077055412239,-0.5509183673469344,42
1764361969.2294922,163001,1.1144,29.06,-4.1415890676443325,0.2490816326530627,40
1764361969.331647,163101,1.1144,28.59,-4.1415890676443325,-0.22091836734693615,40
1764361969.434301,163201,1.1095,28.15,-4.563077055412239,-0.6609183673469374,40
1764361969.536893,163301,1.1095,28.81,-4.563077055412239,-0.0009183673469372877,40
1764361969.6389325,163401,1.1144,28.92,-4.1415890676443325,0.1090816326530657,40
1764361969.7412667,163501,1.1144,29.03,-4.1415890676443325,0.21908163265306513,40
1764361969.8439274,163601,1.1095,28.88,-4.563077055412239,0.069081632653063,40
1764361969.9465628,163701,1.1095,28.4,-4.563077055412239,-0.41091836734693743,40
1764361970.049806,163801,1.1095,28.37,-4.563077055412239,-0.440918367346935,40
1764361970.1525626,163901,1.1193,29.06,-3.7201010798764456,0.2490816326530627,40
1764361970.2545514,164001,1.1095,28.26,-4.563077055412239,-0.5509183673469344,40
1764361970.3570104,164101,1.1144,28.84,-4.1415890676443325,0.02908163265306385,40
1764361970.4595785,164201,1.1144,28.4,-4.1415890676443325,-0.41091836734693743,40
1764361970.5618572,164301,1.1144,28.88,-4.1415890676443325,0.069081632653063,40
1764361970.6640868,164401,1.1095,28.29,-4.563077055412239,-0.5209183673469369,40
1764361970.7671854,164501,1.1144,27.57,-4.1415890676443325,-1.2409183673469357,40
1764361970.8693633,164601,1.1095,28.59,-4.563077055412239,-0.22091836734693615,40
1764361970.9713902,164701,1.1095,28.04,-4.563077055412239,-0.7709183673469369,40
1764361971.074019,164801,1.1144,29.1,-4.1415890676443325,0.2890816326530654,40
1764361971.1764183,164901,1.1144,28.7,-4.1415890676443325,-0.11091836734693672,40
1764361971.2785575,165001,1.1144,28.84,-4.1415890676443325,0.02908163265306385,40
1764361971.381717,165101,1.1144,27.54,-4.1415890676443325,-1.2709183673469369,40
1764361971.4855711,165201,1.0997,27.57,-5.406053030948033,-1.2409183673469357,40
1764361971.587545,165301,1.1095,28.29,-4.563077055412239,-0.5209183673469369,40
1764361971.6896496,165401,1.1144,28.81,-4.1415890676443325,-0.0009183673469372877,40
1764361971.7922585,165501,1.1144,28.08,-4.1415890676443325,-0.7309183673469377,40
1764361971.894884,165601,1.1144,28.66,-4.1415890676443325,-0.15091836734693587,40
1764361971.9968417,165701,1.1144,28.4,-4.1415890676443325,-0.41091836734693743,40
1764361972.1001432,165801,1.1144,27.93,-4.1415890676443325,-0.8809183673469363,40
1764361972.2028193,165901,1.1095,28.26,-4.563077055412239,-0.5509183673469344,40
1764361972.3049097,166001,1.1193,29.14,-3.7201010798764456,0.32908163265306456,40
1764361972.4068606,166101,1.1095,28.22,-4.563077055412239,-0.5909183673469371,40
1764361972.5090547,166201,1.1193,29.03,-3.7201010798764456,0.21908163265306513,40
1764361972.6111667,166301,1.1144,28.59,-4.1415890676443325,-0.22091836734693615,40
1764361972.7136636,166401,1.1144,28.51,-4.1415890676443325,-0.30091836734693445,40
1764361972.8171487,166501,1.1144,28.7,-4.1415890676443325,-0.11091836734693672,40
1764361972.9193385,166601,1.1144,28.77,-4.1415890676443325,-0.040918367346936435,40
1764361973.0215108,166701,1.1144,28.88,-4.1415890676443325,0.069081632653063,40
1764361973.123679,166801,1.1144,28.19,-4.1415890676443325,-0.6209183673469347,40
1764361973.2260551,166901,1.1144,28.48,-4.1415890676443325,-0.3309183673469356,40
1764361973.3288903,167001,1.1144,28.88,-4.1415890676443325,0.069081632653063,40
1764361973.4318876,167101,1.1144,28.04,-4.1415890676443325,-0.7709183673469369,40
1764361973.5344353,167201,1.1193,29.1,-3.7201010798764456,0.2890816326530654,40
1764361973.6374383,167301,1.1144,28.19,-4.1415890676443325,-0.6209183673469347,40
1764361973.7404652,167401,1.1095,28.4,-4.563077055412239,-0.41091836734693743,40
1764361973.8423831,167501,1.1144,28.33,-4.1415890676443325,-0.4809183673469377,40
1764361973.9448216,167601,1.0948,27.43,-5.8275410187159205,-1.3809183673469363,40
1764361974.0474029,167701,1.1144,28.73,-4.1415890676443325,-0.08091836734693558,40
1764361974.1497266,167801,1.1144,28.99,-4.1415890676443325,0.17908163265306243,40
1764361974.2520785,167901,1.1144,29.1,-4.1415890676443325,0.2890816326530654,40
1764361974.3542974,168001,1.1144,29.1,-4.1415890676443325,0.2890816326530654,40
1764361974.4564095,168101,1.1144,28.29,-4.1415890676443325,-0.5209183673469369,40
1764361974.5587633,168201,1.1144,27.97,-4.1415890676443325,-0.8409183673469371,40
1764361974.660783,168301,1.1144,28.59,-4.1415890676443325,-0.22091836734693615,40
1764361974.763552,168401,1.1144,28.29,-4.1415890676443325,-0.5209183673469369,40
1764361974.866314,168501,1.1144,28.99,-4.1415890676443325,0.17908163265306243,40
1764361974.9691389,168601,1.1144,28.59,-4.1415890676443325,-0.22091836734693615,40
1764361975.0720532,168701,1.1144,28.15,-4.1415890676443325,-0.6609183673469374,40
1764361975.1745553,168801,1.1144,29.14,-4.1415890676443325,0.32908163265306456,40
1764361975.2771432,168901,1.1144,28.62,-4.1415890676443325,-0.19091836734693501,40
1764361975.3790326,169001,1.1144,28.0,-4.1415890676443325,-0.810918367346936,40
1764361975.482069,169101,1.1095,28.33,-4.563077055412239,-0.4809183673469377,40
1764361975.584208,169201,1.1095,28.95,-4.563077055412239,0.13908163265306328,40
1764361975.6866052,169301,1.1144,28.73,-4.1415890676443325,-0.08091836734693558,40
1764361975.788405,169401,1.1095,28.95,-4.563077055412239,0.13908163265306328,40
1764361975.8905504,169501,1.1144,28.55,-4.1415890676443325,-0.2609183673469353,40
1764361975.9931562,169601,1.1144,28.66,-4.1415890676443325,-0.15091836734693587,40
1764361976.0953467,169701,1.1193,28.73,-3.7201010798764456,-0.08091836734693558,40
1764361976.1986487,169801,1.1193,28.99,-3.7201010798764456,0.17908163265306243,40
1764361976.3013527,169901,1.1144,28.11,-4.1415890676443325,-0.7009183673469366,40
1764361976.4034762,170001,1.1095,28.48,-4.563077055412239,-0.3309183673469356,40
1764361976.505375,170101,1.1095,28.22,-4.563077055412239,-0.5909183673469371,40
1764361976.607627,170201,1.1193,28.99,-3.7201010798764456,0.17908163265306243,40
1764361976.709559,170301,1.1144,28.81,-4.1415890676443325,-0.0009183673469372877,40
1764361976.8123136,170401,1.1144,28.81,-4.1415890676443325,-0.0009183673469372877,40
1764361976.9147718,170501,1.1193,28.62,-3.7201010798764456,-0.19091836734693501,40
1764361977.018024,170601,1.1144,28.84,-4.1415890676443325,0.02908163265306385,40
1764361977.1202025,170701,1.1193,28.11,-3.7201010798764456,-0.7009183673469366,40
1764361977.2228012,170801,1.1095,28.33,-4.563077055412239,-0.4809183673469377,40
1764361977.32533,170901,1.1095,28.29,-4.563077055412239,-0.5209183673469369,40
1764361977.4287367,171001,1.1144,28.88,-4.1415890676443325,0.069081632653063,40
1764361977.531101,171101,1.1095,28.7,-4.563077055412239,-0.11091836734693672,40
1764361977.6344082,171201,1.1144,28.04,-4.1415890676443325,-0.7709183673469369,40
1764361977.7364519,171301,1.0948,27.43,-5.8275410187159205,-1.3809183673469363,40
1764361977.8384783,171401,1.1144,29.14,-4.1415890676443325,0.32908163265306456,40
1764361977.9411097,171501,1.1193,29.06,-3.7201010798764456,0.2490816326530627,40
1764361978.043394,171601,1.1144,27.97,-4.1415890676443325,-0.8409183673469371,40
1764361978.1474862,171701,1.1144,28.77,-4.1415890676443325,-0.040918367346936435,40
1764361978.2499654,171801,1.1144,29.1,-4.1415890676443325,0.2890816326530654,40
1764361978.352167,171901,1.1144,28.19,-4.1415890676443325,-0.6209183673469347,40
1764361978.4544778,172001,1.1193,28.99,-3.7201010798764456,0.17908163265306243,40
1764361978.5568912,172101,1.1144,28.81,-4.1415890676443325,-0.0009183673469372877,40
1764361978.6590867,172201,1.1144,28.4,-4.1415890676443325,-0.41091836734693743,40
1764361978.7620645,172301,1.1144,27.82,-4.1415890676443325,-0.9909183673469357,40
1764361978.865062,172401,1.1144,28.15,-4.1415890676443325,-0.6609183673469374,40
1764361978.9675722,172501,1.1095,28.26,-4.563077055412239,-0.5509183673469344,40
1764361979.0695827,172601,1.1095,28.22,-4.563077055412239,-0.5909183673469371,40
1764361979.1717434,172701,1.1144,29.1,-4.1415890676443325,0.2890816326530654,40
1764361979.2738585,172801,1.1095,28.51,-4.563077055412239,-0.30091836734693445,40
1764361979.3760743,172901,1.1144,28.04,-4.1415890676443325,-0.7709183673469369,40
1764361979.4791348,173001,1.1095,28.15,-4.563077055412239,-0.6609183673469374,40
1764361979.5816925,173101,1.1095,28.48,-4.563077055412239,-0.3309183673469356,40
1764361979.685131,173201,1.1095,28.66,-4.563077055412239,-0.15091836734693587,40
1764361979.7872164,173301,1.1095,29.14,-4.563077055412239,0.32908163265306456,40
1764361979.8900192,173401,1.1095,28.88,-4.563077055412239,0.069081632653063,40
1764361979.9923582,173501,1.1046,28.66,-4.984565043180127,-0.15091836734693587,40
1764361980.095184,173601,1.1095,28.77,-4.563077055412239,-0.040918367346936435,40
1764361980.1976402,173701,1.1095,28.37,-4.563077055412239,-0.440918367346935,40
1764361980.2995088,173801,1.1144,29.06,-4.1415890676443325,0.2490816326530627,40
1764361980.401195,173901,1.1095,28.55,-4.563077055412239,-0.2609183673469353,40
1764361980.5032382,174001,1.1095,28.11,-4.563077055412239,-0.7009183673469366,41
1764361980.6055434,174101,1.1144,28.44,-4.1415890676443325,-0.37091836734693473,41
1764361980.7075903,174201,1.1144,28.81,-4.1415890676443325,-0.0009183673469372877,41
1764361980.8106186,174301,1.1144,28.44,-4.1415890676443325,-0.37091836734693473,41
1764361980.9135892,174401,1.1144,28.55,-4.1415890676443325,-0.2609183673469353,41
1764361981.0164583,174501,1.1144,28.62,-4.1415890676443325,-0.19091836734693501,41
1764361981.1187484,174601,1.1144,28.55,-4.1415890676443325,-0.2609183673469353,41
1764361981.2211921,174701,1.1144,28.81,-4.1415890676443325,-0.0009183673469372877,41
1764361981.324123,174801,1.1144,28.51,-4.1415890676443325,-0.30091836734693445,41
1764361981.4280715,174901,1.1095,28.4,-4.563077055412239,-0.41091836734693743,41
1764361981.531078,175001,1.1144,29.1,-4.1415890676443325,0.2890816326530654,41
1764361981.6331797,175101,1.1144,28.7,-4.1415890676443325,-0.11091836734693672,41
1764361981.7350552,175201,1.1144,28.55,-4.1415890676443325,-0.2609183673469353,41
1764361981.8379252,175301,1.1144,28.59,-4.1415890676443325,-0.22091836734693615,41
1764361981.9399517,175401,1.1144,28.04,-4.1415890676443325,-0.7709183673469369,41
1764361982.0428503,175501,1.1095,28.48,-4.563077055412239,-0.3309183673469356,41
1764361982.145285,175601,1.1144,28.66,-4.1415890676443325,-0.15091836734693587,41
1764361982.247891,175701,1.1144,29.06,-4.1415890676443325,0.2490816326530627,41
1764361982.34977,175801,1.1095,28.48,-4.563077055412239,-0.3309183673469356,41
1764361982.4514418,175901,1.1095,28.44,-4.563077055412239,-0.37091836734693473,41
1764361982.5534716,176001,1.1095,28.77,-4.563077055412239,-0.040918367346936435,41
1764361982.655462,176101,1.1095,28.48,-4.563077055412239,-0.3309183673469356,41
1764361982.7574131,176201,1.1095,28.33,-4.563077055412239,-0.4809183673469377,41
1764361982.8599248,176301,1.1095,28.29,-4.563077055412239,-0.5209183673469369,41
1764361982.9623544,176401,1.1095,28.19,-4.563077055412239,-0.6209183673469347,41
1764361983.0648081,176501,1.1095,28.37,-4.563077055412239,-0.440918367346935,41
1764361983.167046,176601,1.1095,28.81,-4.563077055412239,-0.0009183673469372877,41
1764361983.2697577,176701,1.1144,27.97,-4.1415890676443325,-0.8409183673469371,41
1764361983.3717132,176801,1.1144,28.88,-4.1415890676443325,0.069081632653063,41
1764361983.4746773,176901,1.1144,29.06,-4.1415890676443325,0.2490816326530627,41
1764361983.5765731,177001,1.1095,27.9,-4.563077055412239,-0.9109183673469374,41
1764361983.6791503,177101,1.1095,28.48,-4.563077055412239,-0.3309183673469356,43
1764361983.7810373,177201,1.1095,28.7,-4.563077055412239,-0.11091836734693672,45
1764361983.883345,177301,1.1144,29.03,-4.1415890676443325,0.21908163265306513,47
1764361983.9884107,177401,1.1144,28.99,-4.1415890676443325,0.17908163265306243,50
1764361984.0922759,177501,1.1095,28.73,-4.563077055412239,-0.08091836734693558,52
1764361984.1954315,177601,1.1095,27.54,-4.563077055412239,-1.2709183673469369,52
1764361984.2969456,177701,1.1144,28.92,-4.1415890676443325,0.1090816326530657,52
1764361984.399067,177801,1.1095,28.77,-4.563077055412239,-0.040918367346936435,53
1764361984.5013537,177901,1.1095,28.92,-4.563077055412239,0.1090816326530657,55
1764361984.6035898,178001,1.1095,28.7,-4.563077055412239,-0.11091836734693672,56
1764361984.7060711,178101,1.1095,27.82,-4.563077055412239,-0.9909183673469357,58
1764361984.8093379,178201,1.1095,28.4,-4.563077055412239,-0.41091836734693743,60
1764361984.912431,178301,1.0997,28.48,-5.406053030948033,-0.3309183673469356,60
1764361985.0145655,178401,1.1046,27.79,-4.984565043180127,-1.0209183673469369,60
1764361985.1168287,178501,1.1046,28.37,-4.984565043180127,-0.440918367346935,60
1764361985.2194593,178601,1.1144,28.15,-4.1415890676443325,-0.6609183673469374,60
1764361985.3214598,178701,1.1144,28.99,-4.1415890676443325,0.17908163265306243,60
1764361985.424831,178801,1.1144,28.84,-4.1415890676443325,0.02908163265306385,60
1764361985.5272028,178901,1.1144,29.03,-4.1415890676443325,0.21908163265306513,60
1764361985.629649,179001,1.1144,28.84,-4.1415890676443325,0.02908163265306385,60
1764361985.7324412,179101,1.1241,28.99,-3.3072148877772705,0.17908163265306243,60
1764361985.8354125,179201,1.1144,28.92,-4.1415890676443325,0.1090816326530657,59
1764361985.9377415,179301,1.1144,28.37,-4.1415890676443325,-0.440918367346935,58
1764361986.0404494,179401,1.1144,27.97,-4.1415890676443325,-0.8409183673469371,58
1764361986.1428943,179501,1.1144,28.55,-4.1415890676443325,-0.2609183673469353,57
1764361986.2458344,179601,1.1144,28.73,-4.1415890676443325,-0.08091836734693558,57
1764361986.3479729,179701,1.1095,28.44,-4.563077055412239,-0.37091836734693473,57
1764361986.4501288,179801,1.1144,28.81,-4.1415890676443325,-0.0009183673469372877,57
1764361986.5522487,179901,1.1193,29.03,-3.7201010798764456,0.21908163265306513,57
1764361986.655283,180001,1.1144,27.93,-4.1415890676443325,-0.8809183673469363,57
1764361986.7588253,180101,1.1144,28.66,-4.1415890676443325,-0.15091836734693587,57
1764361986.861967,180201,1.1144,28.51,-4.1415890676443325,-0.30091836734693445,58
1764361986.9637892,180301,1.1144,27.61,-4.1415890676443325,-1.2009183673469366,58
1764361987.065856,180401,1.1144,27.68,-4.1415890676443325,-1.1309183673469363,58
1764361987.168131,180501,1.1144,28.7,-4.1415890676443325,-0.11091836734693672,58
1764361987.2702296,180601,1.1144,28.19,-4.1415890676443325,-0.6209183673469347,58
1764361987.3728523,180701,1.1144,28.44,-4.1415890676443325,-0.37091836734693473,58
1764361987.4775496,180801,1.1144,28.73,-4.1415890676443325,-0.08091836734693558,57
1764361987.5794997,180901,1.1144,27.68,-4.1415890676443325,-1.1309183673469363,58
1764361987.6815734,181001,1.1144,27.97,-4.1415890676443325,-0.8409183673469371,59
1764361987.783692,181101,1.1144,27.79,-4.1415890676443325,-1.0209183673469369,59
1764361987.8853526,181201,1.1144,28.88,-4.1415890676443325,0.069081632653063,60
1764361987.987501,181301,1.1144,28.55,-4.1415890676443325,-0.2609183673469353,61
1764361988.090873,181401,1.1144,28.92,-4.1415890676443325,0.1090816326530657,61
1764361988.1932583,181501,1.1144,28.55,-4.1415890676443325,-0.2609183673469353,60
1764361988.2953298,181601,1.1144,28.62,-4.1415890676443325,-0.19091836734693501,60
1764361988.3972442,181701,1.1144,28.51,-4.1415890676443325,-0.30091836734693445,60
1764361988.4992397,181801,1.1144,28.92,-4.1415890676443325,0.1090816326530657,60
1764361988.6024384,181901,1.0997,28.08,-5.406053030948033,-0.7309183673469377,60
1764361988.705615,182001,1.1144,28.51,-4.1415890676443325,-0.30091836734693445,60
1764361988.8082392,182101,1.1144,27.68,-4.1415890676443325,-1.1309183673469363,60
1764361988.9109535,182201,1.1144,28.92,-4.1415890676443325,0.1090816326530657,60
1764361989.012961,182301,1.1144,28.88,-4.1415890676443325,0.069081632653063,59
1764361989.1155171,182401,1.1095,28.04,-4.563077055412239,-0.7709183673469369,58
1764361989.2174954,182501,1.1046,27.54,-4.984565043180127,-1.2709183673469369,56
1764361989.3197186,182601,1.1095,29.1,-4.563077055412239,0.2890816326530654,55
1764361989.4220612,182701,1.1095,28.84,-4.563077055412239,0.02908163265306385,53
1764361989.524437,182801,1.1046,27.97,-4.984565043180127,-0.8409183673469371,51
1764361989.6262283,182901,1.1095,28.77,-4.563077055412239,-0.040918367346936435,51
1764361989.727758,183001,1.1046,28.7,-4.984565043180127,-0.11091836734693672,51
1764361989.8296995,183101,1.1095,28.33,-4.563077055412239,-0.4809183673469377,50
1764361989.9317977,183201,1.1046,28.48,-4.984565043180127,-0.3309183673469356,50
1764361990.0340662,183301,1.1095,29.1,-4.563077055412239,0.2890816326530654,50
1764361990.1360364,183401,1.1095,28.59,-4.563077055412239,-0.22091836734693615,50
1764361990.2421234,183501,1.1046,28.04,-4.984565043180127,-0.7709183673469369,50
1764361990.3442369,183601,1.1095,28.77,-4.563077055412239,-0.040918367346936435,50
1764361990.4460797,183701,1.1095,28.62,-4.563077055412239,-0.19091836734693501,49
1764361990.5484407,183801,1.1046,28.22,-4.984565043180127,-0.5909183673469371,49
1764361990.6504714,183901,1.1046,28.7,-4.984565043180127,-0.11091836734693672,48
1764361990.752539,184001,1.1095,28.73,-4.563077055412239,-0.08091836734693558,47
1764361990.856634,184101,1.1095,28.84,-4.563077055412239,0.02908163265306385,46
1764361990.959105,184201,1.1095,29.06,-4.563077055412239,0.2490816326530627,46
1764361991.0610075,184301,1.1095,28.92,-4.563077055412239,0.1090816326530657,46
1764361991.1635678,184401,1.1095,28.92,-4.563077055412239,0.1090816326530657,46
1764361991.2659304,184501,1.1095,29.1,-4.563077055412239,0.2890816326530654,46
1764361991.3678348,184601,1.1095,28.92,-4.563077055412239,0.1090816326530657,46
1764361991.4717093,184701,1.1095,28.4,-4.563077055412239,-0.41091836734693743,46
1764361991.574154,184801,1.1095,28.59,-4.563077055412239,-0.22091836734693615,46
1764361991.6765232,184901,1.1095,28.37,-4.563077055412239,-0.440918367346935,46
1764361991.778462,185001,1.1095,28.59,-4.563077055412239,-0.22091836734693615,46
1764361991.880214,185101,1.1095,28.62,-4.563077055412239,-0.19091836734693501,46
1764361991.982846,185201,1.1095,27.97,-4.563077055412239,-0.8409183673469371,46
1764361992.085205,185301,1.1144,28.92,-4.1415890676443325,0.1090816326530657,46
1764361992.1878412,185401,1.1095,28.4,-4.563077055412239,-0.41091836734693743,46
1764361992.2898521,185501,1.1095,28.44,-4.563077055412239,-0.37091836734693473,46
1764361992.392948,185601,1.1095,28.44,-4.563077055412239,-0.37091836734693473,46
1764361992.4948606,185701,1.0997,28.33,-5.406053030948033,-0.4809183673469377,46
1764361992.5971837,185801,1.1095,27.64,-4.563077055412239,-1.1709183673469354,46
1764361992.699114,185901,1.1193,29.03,-3.7201010798764456,0.21908163265306513,46
1764361992.8017163,186001,1.1095,28.88,-4.563077055412239,0.069081632653063,46
1764361992.9042618,186101,1.1095,29.03,-4.563077055412239,0.21908163265306513,46
1764361993.0071576,186201,1.1095,28.55,-4.563077055412239,-0.2609183673469353,46
1764361993.109338,186301,1.1144,28.95,-4.1415890676443325,0.13908163265306328,46
1764361993.2123423,186401,1.1095,29.03,-4.563077055412239,0.21908163265306513,46
1764361993.3141828,186501,1.1095,28.48,-4.563077055412239,-0.3309183673469356,46
1764361993.4163194,186601,1.1095,28.99,-4.563077055412239,0.17908163265306243,46
1764361993.518961,186701,1.1095,28.44,-4.563077055412239,-0.37091836734693473,46
1764361993.6218174,186801,1.1095,28.84,-4.563077055412239,0.02908163265306385,46
1764361993.724319,186901,1.1095,28.92,-4.563077055412239,0.1090816326530657,46
1764361993.826111,187001,1.1046,28.04,-4.984565043180127,-0.7709183673469369,46
1764361993.9283187,187101,1.1046,28.4,-4.984565043180127,-0.41091836734693743,46
1764361994.0302732,187201,1.1046,27.82,-4.984565043180127,-0.9909183673469357,46
1764361994.1324508,187301,1.1095,28.88,-4.563077055412239,0.069081632653063,46
1764361994.2351644,187401,1.1095,28.77,-4.563077055412239,-0.040918367346936435,46
1764361994.3387294,187501,1.1095,28.95,-4.563077055412239,0.13908163265306328,46
1764361994.4412978,187601,1.1095,28.19,-4.563077055412239,-0.6209183673469347,46
1764361994.5437667,187701,1.1095,27.64,-4.563077055412239,-1.1709183673469354,46
1764361994.6463082,187801,1.1095,28.88,-4.563077055412239,0.069081632653063,46
1764361994.7490091,187901,1.1095,27.68,-4.563077055412239,-1.1309183673469363,46
1764361994.851999,188001,1.1095,28.66,-4.563077055412239,-0.15091836734693587,46
1764361994.9545858,188101,1.1144,29.03,-4.1415890676443325,0.21908163265306513,46
1764361995.0568767,188201,1.1095,28.26,-4.563077055412239,-0.5509183673469344,46
1764361995.1596875,188301,1.1046,28.62,-4.984565043180127,-0.19091836734693501,46
1764361995.2618349,188401,1.1046,28.66,-4.984565043180127,-0.15091836734693587,46
1764361995.3638794,188501,1.1046,28.4,-4.984565043180127,-0.41091836734693743,46
1764361995.4659226,188601,1.1046,27.61,-4.984565043180127,-1.2009183673469366,46
1764361995.5695777,188701,1.1095,28.92,-4.563077055412239,0.1090816326530657,46
1764361995.6723642,188801,1.1046,28.4,-4.984565043180127,-0.41091836734693743,46
1764361995.7740004,188901,1.1095,29.1,-4.563077055412239,0.2890816326530654,46
1764361995.8757777,189001,1.1046,28.26,-4.984565043180127,-0.5509183673469344,46
1764361995.9778748,189101,1.1144,29.03,-4.1415890676443325,0.21908163265306513,46
1764361996.0800996,189201,1.1095,29.03,-4.563077055412239,0.21908163265306513,46
1764361996.1824088,189301,1.1046,28.88,-4.984565043180127,0.069081632653063,46
1764361996.2859335,189401,1.0997,28.22,-5.406053030948033,-0.5909183673469371,46
1764361996.3886206,189501,1.1144,28.95,-4.1415890676443325,0.13908163265306328,46
1764361996.4906118,189601,1.1144,28.99,-4.1415890676443325,0.17908163265306243,46
1764361996.5929718,189701,1.1144,28.99,-4.1415890676443325,0.17908163265306243,46
1764361996.69504,189801,1.1095,28.62,-4.563077055412239,-0.19091836734693501,46
1764361996.7970636,189901,1.1046,27.93,-4.984565043180127,-0.8809183673469363,46
1764361996.8994105,190001,1.1095,28.37,-4.563077055412239,-0.440918367346935,46
1764361997.0026495,190101,1.1095,28.88,-4.563077055412239,0.069081632653063,46
1764361997.1054094,190201,1.1095,28.99,-4.563077055412239,0.17908163265306243,46
1764361997.2076933,190301,1.1095,28.04,-4.563077055412239,-0.7709183673469369,46
1764361997.3097348,190401,1.1095,28.99,-4.563077055412239,0.17908163265306243,46
1764361997.411651,190501,1.1095,28.0,-4.563077055412239,-0.810918367346936,46
1764361997.5135276,190601,1.1095,28.4,-4.563077055412239,-0.41091836734693743,46
1764361997.6161141,190701,1.1095,28.48,-4.563077055412239,-0.3309183673469356,46
1764361997.7205083,190801,1.1046,28.44,-4.984565043180127,-0.37091836734693473,46
1764361997.8227682,190901,1.0997,28.19,-5.406053030948033,-0.6209183673469347,46
1764361997.9245057,191001,1.1095,28.62,-4.563077055412239,-0.19091836734693501,46
1764361998.0268362,191101,1.1046,27.93,-4.984565043180127,-0.8809183673469363,46
1764361998.128875,191201,1.1046,27.82,-4.984565043180127,-0.9909183673469357,46
1764361998.2309997,191301,1.1144,28.95,-4.1415890676443325,0.13908163265306328,46
1764361998.3343098,191401,1.1144,29.1,-4.1415890676443325,0.2890816326530654,46
1764361998.4371195,191501,1.1144,28.92,-4.1415890676443325,0.1090816326530657,46
1764361998.53945,191601,1.1046,27.61,-4.984565043180127,-1.2009183673469366,46
1764361998.6412632,191701,1.1046,28.22,-4.984565043180127,-0.5909183673469371,46
1764361998.7435007,191801,1.1046,28.11,-4.984565043180127,-0.7009183673469366,46
1764361998.8459835,191901,1.1144,29.14,-4.1415890676443325,0.32908163265306456,46
1764361998.9478166,192001,1.1095,28.84,-4.563077055412239,0.02908163265306385,46
1764361999.0499237,192101,1.1095,28.29,-4.563077055412239,-0.5209183673469369,46
1764361999.1523893,192201,1.1095,27.93,-4.563077055412239,-0.8809183673469363,46
1764361999.2545037,192301,1.1095,28.48,-4.563077055412239,-0.3309183673469356,46
1764361999.356867,192401,1.0997,28.04,-5.406053030948033,-0.7709183673469369,46
1764361999.4589474,192501,1.1095,28.33,-4.563077055412239,-0.4809183673469377,46
1764361999.5611126,192601,1.1095,28.62,-4.563077055412239,-0.19091836734693501,46
1764361999.6631866,192701,1.1095,28.04,-4.563077055412239,-0.7709183673469369,46
1764361999.766631,192801,1.1144,29.06,-4.1415890676443325,0.2490816326530627,46
1764361999.8695211,192901,1.1095,28.51,-4.563077055412239,-0.30091836734693445,46
1764361999.9718833,193001,1.1095,27.82,-4.563077055412239,-0.9909183673469357,46
1764362000.074144,193101,1.1095,28.04,-4.563077055412239,-0.7709183673469369,46
1764362000.1762571,193201,1.0997,28.19,-5.406053030948033,-0.6209183673469347,46
1764362000.2787354,193301,1.1095,28.48,-4.563077055412239,-0.3309183673469356,46
1764362000.3827062,193401,1.1095,28.22,-4.563077055412239,-0.5909183673469371,46
1764362000.4861078,193501,1.1095,29.14,-4.563077055412239,0.32908163265306456,46
1764362000.5881405,193601,1.1144,29.03,-4.1415890676443325,0.21908163265306513,46
1764362000.6901739,193701,1.1095,28.26,-4.563077055412239,-0.5509183673469344,45
1764362000.7920806,193801,1.1095,28.77,-4.563077055412239,-0.040918367346936435,45
1764362000.89421,193901,1.1095,28.62,-4.563077055412239,-0.19091836734693501,44
1764362000.9967494,194001,1.1144,29.03,-4.1415890676443325,0.21908163265306513,43
1764362001.0996761,194101,1.1095,28.77,-4.563077055412239,-0.040918367346936435,43
1764362001.2020717,194201,1.1144,29.03,-4.1415890676443325,0.21908163265306513,43
1764362001.3042593,194301,1.1144,28.95,-4.1415890676443325,0.13908163265306328,43
1764362001.4061263,194401,1.1095,28.44,-4.563077055412239,-0.37091836734693473,44
1764362001.5083816,194501,1.1095,28.48,-4.563077055412239,-0.3309183673469356,44
1764362001.6110988,194601,1.1095,28.04,-4.563077055412239,-0.7709183673469369,45
1764362001.7137547,194701,1.1095,28.88,-4.563077055412239,0.069081632653063,46
1764362001.8163898,194801,1.1095,28.44,-4.563077055412239,-0.37091836734693473,47
1764362001.9186463,194901,1.1095,29.1,-4.563077055412239,0.2890816326530654,47
1764362002.0208423,195001,1.1095,28.81,-4.563077055412239,-0.0009183673469372877,47
1764362002.1230354,195101,1.1095,28.77,-4.563077055412239,-0.040918367346936435,47
1764362002.2250593,195201,1.1095,28.84,-4.563077055412239,0.02908163265306385,47
1764362002.3273137,195301,1.0948,27.46,-5.8275410187159205,-1.3509183673469352,47
1764362002.430029,195401,1.1046,28.22,-4.984565043180127,-0.5909183673469371,47
1764362002.5328557,195501,1.1095,28.26,-4.563077055412239,-0.5509183673469344,47
1764362002.6355276,195601,1.1144,28.15,-4.1415890676443325,-0.6609183673469374,47
1764362002.7378943,195701,1.1095,28.95,-4.563077055412239,0.13908163265306328,47
1764362002.840283,195801,1.1095,28.62,-4.563077055412239,-0.19091836734693501,46
1764362002.9423194,195901,1.1095,28.77,-4.563077055412239,-0.040918367346936435,46
1764362003.0450232,196001,1.1095,28.99,-4.563077055412239,0.17908163265306243,45
1764362003.147342,196101,1.1144,29.03,-4.1415890676443325,0.21908163265306513,45
1764362003.2497165,196201,1.1144,28.88,-4.1415890676443325,0.069081632653063,45
1764362003.351662,196301,1.1095,28.51,-4.563077055412239,-0.30091836734693445,45
1764362003.4542122,196401,1.1144,29.1,-4.1415890676443325,0.2890816326530654,45
1764362003.5562096,196501,1.1095,28.33,-4.563077055412239,-0.4809183673469377,46
1764362003.6591468,196601,1.1095,28.37,-4.563077055412239,-0.440918367346935,47
1764362003.7620182,196701,1.1095,28.33,-4.563077055412239,-0.4809183673469377,48
1764362003.8644228,196801,1.1193,28.99,-3.7201010798764456,0.17908163265306243,49
1764362003.9669006,196901,1.1144,28.55,-4.1415890676443325,-0.2609183673469353,50
1764362004.0689445,197001,1.1144,28.04,-4.1415890676443325,-0.7709183673469369,49
1764362004.171213,197101,1.1144,28.95,-4.1415890676443325,0.13908163265306328,49
1764362004.2734725,197201,1.1144,28.88,-4.1415890676443325,0.069081632653063,48
1764362004.3758347,197301,1.1095,28.33,-4.563077055412239,-0.4809183673469377,48
1764362004.478232,197401,1.1095,28.26,-4.563077055412239,-0.5509183673469344,48
1764362004.580753,197501,1.1095,28.77,-4.563077055412239,-0.040918367346936435,48
1764362004.6826859,197601,1.1095,28.73,-4.563077055412239,-0.08091836734693558,48
1764362004.7850578,197701,1.1095,28.33,-4.563077055412239,-0.4809183673469377,48
1764362004.887576,197801,1.1095,28.66,-4.563077055412239,-0.15091836734693587,48
1764362004.9899242,197901,1.1095,28.81,-4.563077055412239,-0.0009183673469372877,48
1764362005.0919755,198001,1.1144,28.99,-4.1415890676443325,0.17908163265306243,48
1764362005.1962543,198101,1.1193,29.1,-3.7201010798764456,0.2890816326530654,48
1764362005.2991652,198201,1.1144,29.14,-4.1415890676443325,0.32908163265306456,49
1764362005.4021342,198301,1.1144,28.62,-4.1415890676443325,-0.19091836734693501,49
1764362005.5047505,198401,1.1193,28.99,-3.7201010798764456,0.17908163265306243,49
1764362005.6071396,198501,1.1095,28.19,-4.563077055412239,-0.6209183673469347,49
1764362005.709359,198601,1.1144,29.06,-4.1415890676443325,0.2490816326530627,48
1764362005.8132594,198701,1.1046,28.33,-4.984565043180127,-0.4809183673469377,48
1764362005.9158406,198801,1.1144,29.03,-4.1415890676443325,0.21908163265306513,48
1764362006.017768,198901,1.1144,29.06,-4.1415890676443325,0.2490816326530627,47
1764362006.1198456,199001,1.1095,28.7,-4.563077055412239,-0.11091836734693672,47
1764362006.2218416,199101,1.1144,28.62,-4.1415890676443325,-0.19091836734693501,47
1764362006.3240714,199201,1.1144,28.04,-4.1415890676443325,-0.7709183673469369,47
1764362006.426663,199301,1.1095,28.51,-4.563077055412239,-0.30091836734693445,48
1764362006.5287027,199401,1.1144,28.55,-4.1415890676443325,-0.2609183673469353,50
1764362006.6312025,199501,1.1144,28.66,-4.1415890676443325,-0.15091836734693587,53
1764362006.7337892,199601,1.1144,29.1,-4.1415890676443325,0.2890816326530654,56
1764362006.835891,199701,1.1046,28.48,-4.984565043180127,-0.3309183673469356,59
1764362006.938122,199801,1.1144,29.06,-4.1415890676443325,0.2490816326530627,61
1764362007.040067,199901,1.1095,28.84,-4.563077055412239,0.02908163265306385,61
1764362007.142177,200001,1.1144,27.64,-4.1415890676443325,-1.1709183673469354,61
1764362007.2457223,200101,1.1144,28.7,-4.1415890676443325,-0.11091836734693672,61
1764362007.348054,200201,1.1144,27.97,-4.1415890676443325,-0.8409183673469371,61
1764362007.450756,200301,1.1144,28.81,-4.1415890676443325,-0.0009183673469372877,60
1764362007.5524068,200401,1.1095,28.55,-4.563077055412239,-0.2609183673469353,61
1764362007.654375,200501,1.1144,28.33,-4.1415890676443325,-0.4809183673469377,62
1764362007.757411,200601,1.1144,28.44,-4.1415890676443325,-0.37091836734693473,63
1764362007.8600726,200701,1.1046,27.18,-4.984565043180127,-1.6309183673469363,64
1764362007.9629974,200801,1.1046,28.04,-4.984565043180127,-0.7709183673469369,64
1764362008.0655446,200901,1.1095,28.37,-4.563077055412239,-0.440918367346935,64
1764362008.1678061,201001,1.1144,28.04,-4.1415890676443325,-0.7709183673469369,63
1764362008.270052,201101,1.1095,28.51,-4.563077055412239,-0.30091836734693445,62
1764362008.3717597,201201,1.1144,28.99,-4.1415890676443325,0.17908163265306243,61
1764362008.474537,201301,1.1144,28.4,-4.1415890676443325,-0.41091836734693743,60
1764362008.5778139,201401,1.1193,28.99,-3.7201010798764456,0.17908163265306243,60
1764362008.6804545,201501,1.1144,28.48,-4.1415890676443325,-0.3309183673469356,58
1764362008.7825212,201601,1.1144,28.77,-4.1415890676443325,-0.040918367346936435,58
1764362008.8846014,201701,1.1144,29.03,-4.1415890676443325,0.21908163265306513,57
1764362008.9869614,201801,1.1144,28.88,-4.1415890676443325,0.069081632653063,58
1764362009.0887852,201901,1.1193,29.14,-3.7201010798764456,0.32908163265306456,59
1764362009.1914701,202001,1.1144,28.19,-4.1415890676443325,-0.6209183673469347,59
1764362009.2952187,202101,1.1144,29.14,-4.1415890676443325,0.32908163265306456,60
1764362009.3981056,202201,1.1144,28.92,-4.1415890676443325,0.1090816326530657,60
1764362009.4998627,202301,1.0948,28.22,-5.8275410187159205,-0.5909183673469371,60
1764362009.602464,202401,1.1095,27.97,-4.563077055412239,-0.8409183673469371,59
1764362009.704707,202501,1.1095,28.81,-4.563077055412239,-0.0009183673469372877,59
1764362009.8068938,202601,1.1095,28.19,-4.563077055412239,-0.6209183673469347,59
1764362009.9091864,202701,1.1144,29.1,-4.1415890676443325,0.2890816326530654,59
1764362010.0121717,202801,1.1144,28.7,-4.1415890676443325,-0.11091836734693672,58
1764362010.1144187,202901,1.1144,28.84,-4.1415890676443325,0.02908163265306385,58
1764362010.2165601,203001,1.1144,28.92,-4.1415890676443325,0.1090816326530657,58
1764362010.3186843,203101,1.1241,27.79,-3.3072148877772705,-1.0209183673469369,57
1764362010.4211233,203201,1.1144,27.93,-4.1415890676443325,-0.8809183673469363,57
1764362010.5236652,203301,1.1095,28.55,-4.563077055412239,-0.2609183673469353,57
1764362010.6264203,203401,1.1144,29.1,-4.1415890676443325,0.2890816326530654,57
1764362010.7288284,203501,1.1144,27.82,-4.1415890676443325,-0.9909183673469357,57
1764362010.8306286,203601,1.1144,28.66,-4.1415890676443325,-0.15091836734693587,58
1764362010.9328523,203701,1.1241,29.06,-3.3072148877772705,0.2490816326530627,59
1764362011.034894,203801,1.1144,29.03,-4.1415890676443325,0.21908163265306513,60
1764362011.1370466,203901,1.1095,28.81,-4.563077055412239,-0.0009183673469372877,60
1764362011.2392325,204001,1.1144,28.59,-4.1415890676443325,-0.22091836734693615,59
1764362011.343801,204101,1.1144,27.75,-4.1415890676443325,-1.060918367346936,60
1764362011.4462695,204201,1.1095,28.4,-4.563077055412239,-0.41091836734693743,60
1764362011.5484552,204301,1.1144,29.03,-4.1415890676443325,0.21908163265306513,60
1764362011.6504755,204401,1.1144,27.79,-4.1415890676443325,-1.0209183673469369,61
1764362011.7529137,204501,1.1144,28.84,-4.1415890676443325,0.02908163265306385,63
1764362011.8548956,204601,1.1144,28.95,-4.1415890676443325,0.13908163265306328,63
1764362011.957382,204701,1.1144,28.88,-4.1415890676443325,0.069081632653063,63
1764362012.0596416,204801,1.1144,28.04,-4.1415890676443325,-0.7709183673469369,63
1764362012.162083,204901,1.1144,28.22,-4.1415890676443325,-0.5909183673469371,63
1764362012.2642694,205001,1.1193,28.95,-3.7201010798764456,0.13908163265306328,63
1764362012.3663015,205101,1.1095,27.86,-4.563077055412239,-0.9509183673469366,63
1764362012.4678984,205201,1.1144,28.59,-4.1415890676443325,-0.22091836734693615,63
1764362012.570333,205301,1.1144,28.4,-4.1415890676443325,-0.41091836734693743,63
1764362012.6721303,205401,1.1144,28.73,-4.1415890676443325,-0.08091836734693558,63
1764362012.7749865,205501,1.1095,28.88,-4.563077055412239,0.069081632653063,63
1764362012.8786473,205601,1.1144,29.14,-4.1415890676443325,0.32908163265306456,63
1764362012.9809074,205701,1.1144,29.03,-4.1415890676443325,0.21908163265306513,63
1764362013.0830863,205801,1.1144,29.06,-4.1415890676443325,0.2490816326530627,63
1764362013.1856942,205901,1.1095,28.62,-4.563077055412239,-0.19091836734693501,63
1764362013.2878761,206001,1.1144,29.1,-4.1415890676443325,0.2890816326530654,63
1764362013.3903725,206101,1.1144,27.54,-4.1415890676443325,-1.2709183673469369,63
1764362013.492823,206201,1.1144,28.04,-4.1415890676443325,-0.7709183673469369,63
1764362013.5963013,206301,1.1095,28.77,-4.563077055412239,-0.040918367346936435,63
1764362013.6983345,206401,1.1095,28.59,-4.563077055412239,-0.22091836734693615,63
1764362013.8011885,206501,1.1144,29.1,-4.1415890676443325,0.2890816326530654,63
1764362013.903678,206601,1.1095,28.15,-4.563077055412239,-0.6609183673469374,63
1764362014.0067387,206701,1.1144,28.99,-4.1415890676443325,0.17908163265306243,63
1764362014.109614,206801,1.1095,28.81,-4.563077055412239,-0.0009183673469372877,63
1764362014.212095,206901,1.1144,28.84,-4.1415890676443325,0.02908163265306385,63
1764362014.3143656,207001,1.1144,29.14,-4.1415890676443325,0.32908163265306456,63
1764362014.4160268,207101,1.1144,28.81,-4.1415890676443325,-0.0009183673469372877,63
1764362014.5178378,207201,1.1144,28.48,-4.1415890676443325,-0.3309183673469356,63
1764362014.6202018,207301,1.1144,29.03,-4.1415890676443325,0.21908163265306513,63
1764362014.7237148,207401,1.1193,28.95,-3.7201010798764456,0.13908163265306328,63
1764362014.8268323,207501,1.1144,28.88,-4.1415890676443325,0.069081632653063,63
1764362014.9291224,207601,1.1144,28.81,-4.1415890676443325,-0.0009183673469372877,63
1764362015.0313494,207701,1.1193,29.06,-3.7201010798764456,0.2490816326530627,63
1764362015.1334336,207801,1.1095,28.62,-4.563077055412239,-0.19091836734693501,63
1764362015.2353456,207901,1.1046,28.0,-4.984565043180127,-0.810918367346936,63
1764362015.3376603,208001,1.1095,28.66,-4.563077055412239,-0.15091836734693587,63
1764362015.4402394,208101,1.1095,27.79,-4.563077055412239,-1.0209183673469369,63
1764362015.5435212,208201,1.1095,28.7,-4.563077055412239,-0.11091836734693672,63
1764362015.6454277,208301,1.1144,28.77,-4.1415890676443325,-0.040918367346936435,58
1764362015.7479455,208401,1.1095,28.51,-4.563077055412239,-0.30091836734693445,54
1764362015.849995,208501,1.1144,28.04,-4.1415890676443325,-0.7709183673469369,50
1764362015.952724,208601,1.1144,29.03,-4.1415890676443325,0.21908163265306513,45
1764362016.0551505,208701,1.1095,28.66,-4.563077055412239,-0.15091836734693587,41
1764362016.1841128,208801,1.1144,28.04,-4.1415890676443325,-0.7709183673469369,41
1764362016.2863874,208901,1.1095,28.22,-4.563077055412239,-0.5909183673469371,41
1764362016.38858,209001,1.1144,28.81,-4.1415890676443325,-0.0009183673469372877,41
1764362016.4908628,209101,1.1144,27.82,-4.1415890676443325,-0.9909183673469357,41
1764362016.5939922,209201,1.1144,28.44,-4.1415890676443325,-0.37091836734693473,41
1764362016.6956508,209301,1.1144,28.73,-4.1415890676443325,-0.08091836734693558,41
1764362016.7979338,209401,1.1095,28.73,-4.563077055412239,-0.08091836734693558,41
1764362016.9004068,209501,1.1144,28.81,-4.1415890676443325,-0.0009183673469372877,41
1764362017.0030744,209601,1.1144,28.66,-4.1415890676443325,-0.15091836734693587,41
1764362017.10525,209701,1.1095,28.19,-4.563077055412239,-0.6209183673469347,41
1764362017.2074518,209801,1.1095,28.33,-4.563077055412239,-0.4809183673469377,41
1764362017.3102202,209901,1.1144,28.37,-4.1415890676443325,-0.440918367346935,41
1764362017.4126773,210001,1.1095,28.29,-4.563077055412239,-0.5209183673469369,41
1764362017.514754,210101,1.1144,28.4,-4.1415890676443325,-0.41091836734693743,41
1764362017.6170304,210201,1.1144,28.51,-4.1415890676443325,-0.30091836734693445,41
1764362017.719374,210301,1.1144,28.62,-4.1415890676443325,-0.19091836734693501,41
1764362017.8235915,210401,1.1193,29.06,-3.7201010798764456,0.2490816326530627,41
1764362017.9260206,210501,1.1144,28.66,-4.1415890676443325,-0.15091836734693587,41
1764362018.028054,210601,1.1144,28.19,-4.1415890676443325,-0.6209183673469347,41
1764362018.1302686,210701,1.1095,28.4,-4.563077055412239,-0.41091836734693743,41
1764362018.2321224,210801,1.1144,28.19,-4.1415890676443325,-0.6209183673469347,41
1764362018.334688,210901,1.1144,29.14,-4.1415890676443325,0.32908163265306456,41
1764362018.4384513,211001,1.1144,28.33,-4.1415890676443325,-0.4809183673469377,41
1764362018.5409622,211101,1.1144,28.73,-4.1415890676443325,-0.08091836734693558,41
1764362018.64315,211201,1.1144,28.59,-4.1415890676443325,-0.22091836734693615,41
1764362018.7453141,211301,1.1095,28.4,-4.563077055412239,-0.41091836734693743,41
1764362018.8471606,211401,1.1144,28.7,-4.1415890676443325,-0.11091836734693672,41
1764362018.9494631,211501,1.1144,28.81,-4.1415890676443325,-0.0009183673469372877,41
1764362019.0517318,211601,1.1193,27.9,-3.7201010798764456,-0.9109183673469374,41
1764362019.1547039,211701,1.1144,29.1,-4.1415890676443325,0.2890816326530654,41
1764362019.2572272,211801,1.1144,28.77,-4.1415890676443325,-0.040918367346936435,41
