timestamp,ecg_raw,ecg_voltage,temperature,ecg_change_percent,temp_change_celsius,bpm
1764359029.4201572,9801,1.129,28.77,-6.3135593937926195,0.08948979591836803,70
1764359029.5220819,9901,1.129,29.03,-6.3135593937926195,0.3494897959183696,70
1764359029.6244354,10001,1.1241,28.33,-6.7201701634741156,-0.35051020408163325,70
1764359029.727284,10101,1.1241,29.03,-6.7201701634741156,0.3494897959183696,70
1764359029.8298671,10201,1.1241,28.77,-6.7201701634741156,0.08948979591836803,70
1764359029.932411,10301,1.1241,28.48,-6.7201701634741156,-0.20051020408163112,70
1764359030.0345638,10401,1.129,28.88,-6.3135593937926195,0.19948979591836746,70
1764359030.1361449,10501,1.129,28.66,-6.3135593937926195,-0.0205102040816314,70
1764359030.2381983,10601,1.129,29.03,-6.3135593937926195,0.3494897959183696,70
1764359030.3401937,10701,1.1241,27.82,-6.7201701634741156,-0.8605102040816313,70
1764359030.442727,10801,1.129,28.04,-6.3135593937926195,-0.6405102040816324,70
1764359030.545372,10901,1.129,28.95,-6.3135593937926195,0.26948979591836775,70
1764359030.6488016,11001,1.129,28.29,-6.3135593937926195,-0.3905102040816324,70
1764359030.75091,11101,1.1241,27.93,-6.7201701634741156,-0.7505102040816318,70
1764359030.8534534,11201,1.129,28.92,-6.3135593937926195,0.23948979591837016,70
1764359030.9554658,11301,1.1193,28.81,-7.118482754182537,0.12948979591836718,70
1764359031.0580945,11401,1.129,28.95,-6.3135593937926195,0.26948979591836775,70
1764359031.160685,11501,1.1241,28.66,-6.7201701634741156,-0.0205102040816314,70
1764359031.2629201,11601,1.1241,28.51,-6.7201701634741156,-0.17051020408162998,70
1764359031.3649902,11701,1.129,28.7,-6.3135593937926195,0.019489795918367747,70
1764359031.4674103,11801,1.129,28.95,-6.3135593937926195,0.26948979591836775,70
1764359031.5695941,11901,1.129,28.55,-6.3135593937926195,-0.13051020408163083,70
1764359031.6718297,12001,1.1241,29.03,-6.7201701634741156,0.3494897959183696,70
1764359031.775886,12101,1.1241,28.77,-6.7201701634741156,0.08948979591836803,70
1764359031.8776855,12201,1.1241,29.03,-6.7201701634741156,0.3494897959183696,70
1764359031.9794486,12301,1.1193,28.95,-7.118482754182537,0.26948979591836775,70
1764359032.0817869,12401,1.1241,28.04,-6.7201701634741156,-0.6405102040816324,70
1764359032.1844826,12501,1.1241,29.06,-6.7201701634741156,0.3794897959183672,81
1764359032.287029,12601,1.1241,27.54,-6.7201701634741156,-1.1405102040816324,81
1764359032.3893654,12701,1.1144,28.33,-7.52509352386403,-0.35051020408163325,75
1764359032.4923208,12801,1.129,28.48,-6.3135593937926195,-0.20051020408163112,73
1764359032.5942988,12901,1.1095,28.73,-7.931704293545544,0.049489795918368884,72
1764359032.6960974,13001,1.1193,28.59,-7.118482754182537,-0.09051020408163168,72
1764359032.7981825,13101,1.1241,29.03,-6.7201701634741156,0.3494897959183696,73
1764359032.9008064,13201,1.1241,28.99,-6.7201701634741156,0.3094897959183669,78
1764359033.0028927,13301,1.1241,27.64,-6.7201701634741156,-1.040510204081631,83
1764359033.1055045,13401,1.1193,28.08,-7.118482754182537,-0.6005102040816332,84
1764359033.2077801,13501,1.1193,27.97,-7.118482754182537,-0.7105102040816327,82
1764359033.3099344,13601,1.1241,28.81,-6.7201701634741156,0.12948979591836718,80
1764359033.4118037,13701,1.1241,28.4,-6.7201701634741156,-0.28051020408163296,78
1764359033.5134554,13801,1.1241,28.73,-6.7201701634741156,0.049489795918368884,75
1764359033.6158822,13901,1.1241,27.82,-6.7201701634741156,-0.8605102040816313,75
1764359033.717982,14001,1.1193,28.59,-7.118482754182537,-0.09051020408163168,75
1764359033.820082,14101,1.1193,28.81,-7.118482754182537,0.12948979591836718,75
1764359033.921953,14201,1.1241,28.81,-6.7201701634741156,0.12948979591836718,75
1764359034.0244741,14301,1.1193,27.9,-7.118482754182537,-0.780510204081633,72
1764359034.1265626,14401,1.1193,29.03,-7.118482754182537,0.3494897959183696,70
1764359034.2286189,14501,1.1193,28.51,-7.118482754182537,-0.17051020408162998,67
1764359034.3310843,14601,1.1144,28.0,-7.52509352386403,-0.6805102040816315,65
1764359034.4338174,14701,1.1193,28.66,-7.118482754182537,-0.0205102040816314,63
1764359034.5360699,14801,1.1241,28.66,-6.7201701634741156,-0.0205102040816314,63
1764359034.6392999,14901,1.1241,28.44,-6.7201701634741156,-0.24051020408163026,62
1764359034.7417219,15001,1.1193,28.48,-7.118482754182537,-0.20051020408163112,61
1764359034.8436205,15101,1.1193,28.0,-7.118482754182537,-0.6805102040816315,61
1764359034.9461348,15201,1.1193,28.37,-7.118482754182537,-0.31051020408163055,60
1764359035.0481815,15301,1.1193,28.62,-7.118482754182537,-0.06051020408163055,60
1764359035.1504433,15401,1.1193,28.99,-7.118482754182537,0.3094897959183669,61
1764359035.252632,15501,1.1193,28.44,-7.118482754182537,-0.24051020408163026,60
1764359035.3558638,15601,1.1193,28.95,-7.118482754182537,0.26948979591836775,59
1764359035.4589496,15701,1.1193,28.55,-7.118482754182537,-0.13051020408163083,56
1764359035.5606647,15801,1.1193,28.77,-7.118482754182537,0.08948979591836803,53
1764359035.663444,15901,1.1193,28.4,-7.118482754182537,-0.28051020408163296,49
1764359035.7656918,16001,1.1193,28.4,-7.118482754182537,-0.28051020408163296,50
1764359035.8679237,16101,1.1241,28.81,-6.7201701634741156,0.12948979591836718,50
1764359035.9711854,16201,1.1144,27.9,-7.52509352386403,-0.780510204081633,52
1764359036.074081,16301,1.1144,27.9,-7.52509352386403,-0.780510204081633,54
1764359036.1761887,16401,1.1193,28.04,-7.118482754182537,-0.6405102040816324,57
1764359036.278478,16501,1.1193,28.48,-7.118482754182537,-0.20051020408163112,57
1764359036.3811436,16601,1.1144,28.08,-7.52509352386403,-0.6005102040816332,57
1764359036.483923,16701,1.1193,27.39,-7.118482754182537,-1.290510204081631,57
1764359036.5858538,16801,1.1193,28.26,-7.118482754182537,-0.42051020408163,58
1764359036.6882124,16901,1.1241,28.62,-6.7201701634741156,-0.06051020408163055,58
1764359036.7907403,17001,1.1193,27.79,-7.118482754182537,-0.8905102040816324,59
1764359036.8925538,17101,1.1241,28.66,-6.7201701634741156,-0.0205102040816314,60
1764359036.9946258,17201,1.1193,27.82,-7.118482754182537,-0.8605102040816313,60
1764359037.097401,17301,1.1144,28.4,-7.52509352386403,-0.28051020408163296,60
1764359037.2000456,17401,1.129,28.92,-6.3135593937926195,0.23948979591837016,60
1764359037.302779,17501,1.1193,28.88,-7.118482754182537,0.19948979591836746,60
1764359037.4057906,17601,1.1193,28.81,-7.118482754182537,0.12948979591836718,60
1764359037.5077865,17701,1.1241,28.81,-6.7201701634741156,0.12948979591836718,56
1764359037.6098585,17801,1.1241,27.54,-6.7201701634741156,-1.1405102040816324,52
1764359037.7123394,17901,1.1193,27.97,-7.118482754182537,-0.7105102040816327,49
1764359037.8149533,18001,1.1241,28.81,-6.7201701634741156,0.12948979591836718,45
1764359037.9168918,18101,1.1241,28.29,-6.7201701634741156,-0.3905102040816324,41
1764359038.0195012,18201,1.1193,28.04,-7.118482754182537,-0.6405102040816324,41
1764359038.1230304,18301,1.1193,28.66,-7.118482754182537,-0.0205102040816314,41
1764359038.2252195,18401,1.1144,27.93,-7.52509352386403,-0.7505102040816318,41
1764359038.3270602,18501,1.1241,27.82,-6.7201701634741156,-0.8605102040816313,41
1764359038.4293811,18601,1.1241,28.55,-6.7201701634741156,-0.13051020408163083,41
1764359038.5315995,18701,1.1241,28.7,-6.7201701634741156,0.019489795918367747,41
1764359038.633992,18801,1.1241,27.72,-6.7201701634741156,-0.9605102040816327,41
1764359038.7382882,18901,1.1144,27.82,-7.52509352386403,-0.8605102040816313,41
1764359038.840624,19001,1.1241,28.84,-6.7201701634741156,0.15948979591836832,41
1764359038.9424844,19101,1.1241,28.73,-6.7201701634741156,0.049489795918368884,41
1764359039.0449562,19201,1.1193,28.55,-7.118482754182537,-0.13051020408163083,41
1764359039.1481862,19301,1.1193,28.81,-7.118482754182537,0.12948979591836718,41
1764359039.2511241,19401,1.1241,28.59,-6.7201701634741156,-0.09051020408163168,41
1764359039.3530893,19501,1.1193,28.84,-7.118482754182537,0.15948979591836832,41
1764359039.4560337,19601,1.1241,29.06,-6.7201701634741156,0.3794897959183672,41
1764359039.5587332,19701,1.1193,28.44,-7.118482754182537,-0.24051020408163026,41
1764359039.66065,19801,1.1193,27.93,-7.118482754182537,-0.7505102040816318,41
1764359039.7624831,19901,1.129,28.84,-6.3135593937926195,0.15948979591836832,41
1764359039.8639104,20001,1.1241,28.81,-6.7201701634741156,0.12948979591836718,41
1764359039.966284,20101,1.129,28.88,-6.3135593937926195,0.19948979591836746,41
1764359040.0688407,20201,1.0899,27.82,-9.55814737227154,-0.8605102040816313,41
1764359040.1713784,20301,1.1193,28.7,-7.118482754182537,0.019489795918367747,41
1764359040.2733676,20401,1.1241,28.15,-6.7201701634741156,-0.530510204081633,41
1764359040.3757408,20501,1.1095,28.15,-7.931704293545544,-0.530510204081633,41
1764359040.4776986,20601,1.1193,28.73,-7.118482754182537,0.049489795918368884,46
1764359040.5796883,20701,1.1193,29.03,-7.118482754182537,0.3494897959183696,51
1764359040.6820025,20801,1.1193,28.37,-7.118482754182537,-0.31051020408163055,56
1764359040.7843926,20901,1.1193,28.81,-7.118482754182537,0.12948979591836718,61
1764359040.8870919,21001,1.1144,27.82,-7.52509352386403,-0.8605102040816313,66
1764359040.989708,21101,1.1193,28.7,-7.118482754182537,0.019489795918367747,66
1764359041.091826,21201,1.1241,28.04,-6.7201701634741156,-0.6405102040816324,65
1764359041.1940162,21301,1.1241,28.62,-6.7201701634741156,-0.06051020408163055,64
1764359041.2963219,21401,1.1193,28.59,-7.118482754182537,-0.09051020408163168,64
1764359041.398081,21501,1.1193,28.19,-7.118482754182537,-0.49051020408163026,63
1764359041.5001526,21601,1.1193,28.99,-7.118482754182537,0.3094897959183669,62
1764359041.6036847,21701,1.1193,28.92,-7.118482754182537,0.23948979591837016,61
1764359041.7058656,21801,1.1095,28.88,-7.931704293545544,0.19948979591836746,59
1764359041.8079636,21901,1.1144,28.04,-7.52509352386403,-0.6405102040816324,58
1764359041.9106376,22001,1.1144,28.59,-7.52509352386403,-0.09051020408163168,57
1764359042.0128589,22101,1.1144,27.79,-7.52509352386403,-0.8905102040816324,57
1764359042.1151145,22201,1.1193,28.88,-7.118482754182537,0.19948979591836746,57
1764359042.219878,22301,1.1193,28.7,-7.118482754182537,0.019489795918367747,58
1764359042.3220122,22401,1.1193,27.54,-7.118482754182537,-1.1405102040816324,60
1764359042.424778,22501,1.1241,28.81,-6.7201701634741156,0.12948979591836718,61
1764359042.5269747,22601,1.1193,28.04,-7.118482754182537,-0.6405102040816324,62
1764359042.6294217,22701,1.1144,27.97,-7.52509352386403,-0.7105102040816327,62
1764359042.7314394,22801,1.1193,28.77,-7.118482754182537,0.08948979591836803,61
1764359042.8340926,22901,1.1193,28.62,-7.118482754182537,-0.06051020408163055,60
1764359042.9367168,23001,1.1193,28.77,-7.118482754182537,0.08948979591836803,58
1764359043.03879,23101,1.1193,28.7,-7.118482754182537,0.019489795918367747,57
1764359043.1408381,23201,1.1193,28.81,-7.118482754182537,0.12948979591836718,57
1764359043.243158,23301,1.1241,28.81,-6.7201701634741156,0.12948979591836718,57
1764359043.3461435,23401,1.1193,28.44,-7.118482754182537,-0.24051020408163026,58
1764359043.4483995,23501,1.1193,28.62,-7.118482754182537,-0.06051020408163055,59
1764359043.5517325,23601,1.1193,28.81,-7.118482754182537,0.12948979591836718,61
1764359043.6540136,23701,1.1193,28.73,-7.118482754182537,0.049489795918368884,62
1764359043.7557623,23801,1.1193,27.97,-7.118482754182537,-0.7105102040816327,64
1764359043.8583977,23901,1.1193,29.03,-7.118482754182537,0.3494897959183696,65
1764359043.9612432,24001,1.1193,28.51,-7.118482754182537,-0.17051020408162998,65
1764359044.063328,24101,1.1193,29.03,-7.118482754182537,0.3494897959183696,65
1764359044.1654494,24201,1.1193,28.88,-7.118482754182537,0.19948979591836746,64
1764359044.2681973,24301,1.1193,28.59,-7.118482754182537,-0.09051020408163168,64
1764359044.370238,24401,1.1193,28.37,-7.118482754182537,-0.31051020408163055,64
1764359044.4719899,24501,1.1193,28.55,-7.118482754182537,-0.13051020408163083,63
1764359044.5741572,24601,1.1193,28.77,-7.118482754182537,0.08948979591836803,63
1764359044.6766236,24701,1.1193,28.84,-7.118482754182537,0.15948979591836832,62
1764359044.779106,24801,1.1193,28.29,-7.118482754182537,-0.3905102040816324,61
1764359044.881471,24901,1.1193,28.26,-7.118482754182537,-0.42051020408163,60
1764359044.9841487,25001,1.1241,28.84,-6.7201701634741156,0.15948979591836832,59
1764359045.0862432,25101,1.1241,27.54,-6.7201701634741156,-1.1405102040816324,58
1764359045.1883376,25201,1.1241,28.81,-6.7201701634741156,0.12948979591836718,58
1764359045.2908988,25301,1.1241,28.88,-6.7201701634741156,0.19948979591836746,58
1764359045.3936567,25401,1.1193,29.03,-7.118482754182537,0.3494897959183696,57
1764359045.4960063,25501,1.1193,28.66,-7.118482754182537,-0.0205102040816314,56
1764359045.5985546,25601,1.1193,28.73,-7.118482754182537,0.049489795918368884,55
1764359045.7013402,25701,1.1193,29.1,-7.118482754182537,0.4194897959183699,54
1764359045.8038054,25801,1.1193,28.73,-7.118482754182537,0.049489795918368884,53
1764359045.9058807,25901,1.1193,28.37,-7.118482754182537,-0.31051020408163055,53
1764359046.0079498,26001,1.1144,28.19,-7.52509352386403,-0.49051020408163026,53
1764359046.110274,26101,1.1241,28.95,-6.7201701634741156,0.26948979591836775,53
1764359046.2126656,26201,1.1144,28.7,-7.52509352386403,0.019489795918367747,54
1764359046.3152704,26301,1.1193,28.11,-7.118482754182537,-0.5705102040816321,54
1764359046.418059,26401,1.1193,28.19,-7.118482754182537,-0.49051020408163026,54
1764359046.5201545,26501,1.1193,28.29,-7.118482754182537,-0.3905102040816324,55
1764359046.6223602,26601,1.1193,28.48,-7.118482754182537,-0.20051020408163112,55
1764359046.7243252,26701,1.1193,29.03,-7.118482754182537,0.3494897959183696,55
1764359046.8267524,26801,1.1193,28.81,-7.118482754182537,0.12948979591836718,55
1764359046.9294562,26901,1.1241,28.88,-6.7201701634741156,0.19948979591836746,55
1764359047.0323873,27001,1.1193,28.4,-7.118482754182537,-0.28051020408163296,56
1764359047.135356,27101,1.1193,28.59,-7.118482754182537,-0.09051020408163168,58
1764359047.2374158,27201,1.1193,28.84,-7.118482754182537,0.15948979591836832,59
1764359047.3397655,27301,1.1193,28.7,-7.118482754182537,0.019489795918367747,61
1764359047.4425745,27401,1.1193,27.54,-7.118482754182537,-1.1405102040816324,62
1764359047.5448565,27501,1.1193,28.29,-7.118482754182537,-0.3905102040816324,61
1764359047.647122,27601,1.1095,28.22,-7.931704293545544,-0.4605102040816327,59
1764359047.750253,27701,1.1193,29.03,-7.118482754182537,0.3494897959183696,57
1764359047.8521552,27801,1.1193,28.59,-7.118482754182537,-0.09051020408163168,56
1764359047.9543188,27901,1.1193,27.93,-7.118482754182537,-0.7505102040816318,55
1764359048.0569065,28001,1.1193,28.26,-7.118482754182537,-0.42051020408163,53
1764359048.1588364,28101,1.1193,28.4,-7.118482754182537,-0.28051020408163296,53
1764359048.2696717,28201,1.1193,28.04,-7.118482754182537,-0.6405102040816324,53
1764359048.3718877,28301,1.1193,29.03,-7.118482754182537,0.3494897959183696,53
1764359048.4742687,28401,1.1193,28.15,-7.118482754182537,-0.530510204081633,53
1764359048.577237,28501,1.1193,28.99,-7.118482754182537,0.3094897959183669,53
1764359048.6807902,28601,1.1193,28.29,-7.118482754182537,-0.3905102040816324,53
1764359048.784097,28701,1.1193,28.81,-7.118482754182537,0.12948979591836718,53
1764359048.8862848,28801,1.1193,28.62,-7.118482754182537,-0.06051020408163055,53
1764359048.9889963,28901,1.1095,28.37,-7.931704293545544,-0.31051020408163055,52
1764359049.0914843,29001,1.1193,28.66,-7.118482754182537,-0.0205102040816314,52
1764359049.1942801,29101,1.1193,28.44,-7.118482754182537,-0.24051020408163026,52
1764359049.2973375,29201,1.1144,27.93,-7.52509352386403,-0.7505102040816318,51
1764359049.4008262,29301,1.1193,29.03,-7.118482754182537,0.3494897959183696,51
1764359049.50303,29401,1.1193,28.59,-7.118482754182537,-0.09051020408163168,52
1764359049.6059916,29501,1.1193,28.33,-7.118482754182537,-0.35051020408163325,52
1764359049.7088902,29601,1.1144,28.33,-7.52509352386403,-0.35051020408163325,52
1764359049.8112562,29701,1.1193,28.66,-7.118482754182537,-0.0205102040816314,52
1764359049.9149683,29801,1.1193,28.77,-7.118482754182537,0.08948979591836803,52
1764359050.0173843,29901,1.1193,28.59,-7.118482754182537,-0.09051020408163168,52
1764359050.1201105,30001,1.1193,28.62,-7.118482754182537,-0.06051020408163055,53
1764359050.2229595,30101,1.1193,27.54,-7.118482754182537,-1.1405102040816324,53
1764359050.3249524,30201,1.1193,28.44,-7.118482754182537,-0.24051020408163026,54
1764359050.4271443,30301,1.1193,28.7,-7.118482754182537,0.019489795918367747,54
1764359050.530914,30401,1.1193,28.04,-7.118482754182537,-0.6405102040816324,54
1764359050.6401713,30501,1.1193,28.95,-7.118482754182537,0.26948979591836775,53
1764359050.7440495,30601,1.1193,28.81,-7.118482754182537,0.12948979591836718,53
1764359050.846917,30701,1.1193,28.66,-7.118482754182537,-0.0205102040816314,52
1764359050.9489963,30801,1.1193,29.03,-7.118482754182537,0.3494897959183696,52
1764359051.050774,30901,1.1193,27.64,-7.118482754182537,-1.040510204081631,52
1764359051.153076,31001,1.1193,29.03,-7.118482754182537,0.3494897959183696,52
1764359051.2553508,31101,1.1193,28.59,-7.118482754182537,-0.09051020408163168,53
1764359051.3578103,31201,1.1193,27.97,-7.118482754182537,-0.7105102040816327,53
1764359051.4600031,31301,1.1095,28.15,-7.931704293545544,-0.530510204081633,53
1764359051.5619051,31401,1.0997,27.86,-8.744925832908551,-0.8205102040816321,54
1764359051.6644213,31501,1.1144,28.77,-7.52509352386403,0.08948979591836803,54
1764359051.7670858,31601,1.1144,28.95,-7.52509352386403,0.26948979591836775,54
1764359051.8691585,31701,1.1193,28.92,-7.118482754182537,0.23948979591837016,54
1764359051.9717073,31801,1.1144,28.44,-7.52509352386403,-0.24051020408163026,54
1764359052.0740647,31901,1.1144,28.4,-7.52509352386403,-0.28051020408163296,54
1764359052.176274,32001,1.1144,28.04,-7.52509352386403,-0.6405102040816324,54
1764359052.2887042,32101,1.1193,28.33,-7.118482754182537,-0.35051020408163325,54
1764359052.391304,32201,1.1193,28.33,-7.118482754182537,-0.35051020408163325,54
1764359052.4935453,32301,1.1144,28.37,-7.52509352386403,-0.31051020408163055,54
1764359052.5960038,32401,1.1193,28.48,-7.118482754182537,-0.20051020408163112,53
1764359052.698405,32501,1.1193,28.77,-7.118482754182537,0.08948979591836803,52
1764359052.8004673,32601,1.1193,28.84,-7.118482754182537,0.15948979591836832,51
1764359052.9025884,32701,1.1193,29.03,-7.118482754182537,0.3494897959183696,50
1764359053.0046365,32801,1.1095,28.22,-7.931704293545544,-0.4605102040816327,50
1764359053.1069036,32901,1.1193,28.99,-7.118482754182537,0.3094897959183669,50
1764359053.2089527,33001,1.1193,27.68,-7.118482754182537,-1.0005102040816318,50
1764359053.3115542,33101,1.1193,28.59,-7.118482754182537,-0.09051020408163168,50
1764359053.413842,33201,1.1193,28.99,-7.118482754182537,0.3094897959183669,53
1764359053.5157957,33301,1.1193,28.11,-7.118482754182537,-0.5705102040816321,56
1764359053.61753,33401,1.1193,28.7,-7.118482754182537,0.019489795918367747,60
1764359053.7195032,33501,1.1193,28.99,-7.118482754182537,0.3094897959183669,63
1764359053.8220341,33601,1.1144,27.75,-7.52509352386403,-0.9305102040816315,66
1764359053.924771,33701,1.1144,27.75,-7.52509352386403,-0.9305102040816315,66
1764359054.0291204,33801,1.1144,28.4,-7.52509352386403,-0.28051020408163296,66
1764359054.131626,33901,1.1193,28.81,-7.118482754182537,0.12948979591836718,66
1764359054.2336018,34001,1.1193,29.03,-7.118482754182537,0.3494897959183696,66
1764359054.3362143,34101,1.1193,29.03,-7.118482754182537,0.3494897959183696,66
1764359054.4385362,34201,1.1144,27.82,-7.52509352386403,-0.8605102040816313,66
1764359054.5412576,34301,1.1193,28.7,-7.118482754182537,0.019489795918367747,66
1764359054.6458888,34401,1.1193,28.33,-7.118482754182537,-0.35051020408163325,66
1764359054.7478733,34501,1.1193,28.84,-7.118482754182537,0.15948979591836832,66
1764359054.8499484,34601,1.1095,28.19,-7.931704293545544,-0.49051020408163026,66
1764359054.9520946,34701,1.1144,28.55,-7.52509352386403,-0.13051020408163083,66
1764359055.0546567,34801,1.1193,28.77,-7.118482754182537,0.08948979591836803,66
1764359055.1569676,34901,1.1193,28.92,-7.118482754182537,0.23948979591837016,66
1764359055.259147,35001,1.1144,28.51,-7.52509352386403,-0.17051020408162998,66
1764359055.3623073,35101,1.1193,28.37,-7.118482754182537,-0.31051020408163055,66
1764359055.4649036,35201,1.1193,28.84,-7.118482754182537,0.15948979591836832,66
1764359055.5671604,35301,1.1193,28.29,-7.118482754182537,-0.3905102040816324,66
1764359055.6692781,35401,1.1144,28.92,-7.52509352386403,0.23948979591837016,66
1764359055.7716942,35501,1.1144,28.73,-7.52509352386403,0.049489795918368884,66
1764359055.8735135,35601,1.1144,28.77,-7.52509352386403,0.08948979591836803,66
1764359055.976204,35701,1.1144,28.48,-7.52509352386403,-0.20051020408163112,66
1764359056.0785751,35801,1.1193,28.95,-7.118482754182537,0.26948979591836775,66
1764359056.180843,35901,1.1144,28.08,-7.52509352386403,-0.6005102040816332,66
1764359056.2826595,36001,1.1193,28.48,-7.118482754182537,-0.20051020408163112,66
1764359056.384596,36101,1.1193,28.59,-7.118482754182537,-0.09051020408163168,66
1764359056.486975,36201,1.1193,28.7,-7.118482754182537,0.019489795918367747,66
1764359056.5891323,36301,1.1193,28.7,-7.118482754182537,0.019489795918367747,66
1764359056.6912663,36401,1.1193,27.68,-7.118482754182537,-1.0005102040816318,66
1764359056.7937539,36501,1.1193,29.03,-7.118482754182537,0.3494897959183696,66
1764359056.8958275,36601,1.1193,28.4,-7.118482754182537,-0.28051020408163296,66
1764359056.9977398,36701,1.1193,28.37,-7.118482754182537,-0.31051020408163055,66
1764359057.0999877,36801,1.1241,29.03,-6.7201701634741156,0.3494897959183696,66
1764359057.2023208,36901,1.1193,28.92,-7.118482754182537,0.23948979591837016,66
1764359057.30463,37001,1.1193,28.66,-7.118482754182537,-0.0205102040816314,66
1764359057.4066753,37101,1.1193,28.4,-7.118482754182537,-0.28051020408163296,66
1764359057.5107791,37201,1.1193,28.95,-7.118482754182537,0.26948979591836775,66
1764359057.6127365,37301,1.1241,28.88,-6.7201701634741156,0.19948979591836746,66
1764359057.714507,37401,1.1193,28.04,-7.118482754182537,-0.6405102040816324,66
1764359057.816811,37501,1.1193,28.51,-7.118482754182537,-0.17051020408162998,66
1764359057.9193106,37601,1.1193,28.33,-7.118482754182537,-0.35051020408163325,66
1764359058.0217674,37701,1.1095,28.22,-7.931704293545544,-0.4605102040816327,66
1764359058.1242404,37801,1.1144,27.75,-7.52509352386403,-0.9305102040816315,66
1764359058.2271357,37901,1.1144,27.79,-7.52509352386403,-0.8905102040816324,66
1764359058.328882,38001,1.1193,28.4,-7.118482754182537,-0.28051020408163296,66
1764359058.4311354,38101,1.1193,28.22,-7.118482754182537,-0.4605102040816327,66
1764359058.5334773,38201,1.1193,28.26,-7.118482754182537,-0.42051020408163,66
1764359058.636139,38301,1.1193,28.51,-7.118482754182537,-0.17051020408162998,66
1764359058.7386432,38401,1.1193,28.04,-7.118482754182537,-0.6405102040816324,66
1764359058.840783,38501,1.1241,28.88,-6.7201701634741156,0.19948979591836746,66
1764359058.943263,38601,1.1193,28.95,-7.118482754182537,0.26948979591836775,66
1764359059.0451884,38701,1.1241,28.84,-6.7201701634741156,0.15948979591836832,66
1764359059.14715,38801,1.1193,28.81,-7.118482754182537,0.12948979591836718,66
1764359059.2492723,38901,1.1144,28.37,-7.52509352386403,-0.31051020408163055,66
1764359059.35158,39001,1.1193,28.04,-7.118482754182537,-0.6405102040816324,66
1764359059.4539635,39101,1.1193,28.19,-7.118482754182537,-0.49051020408163026,66
1764359059.5561855,39201,1.1193,28.4,-7.118482754182537,-0.28051020408163296,66
1764359059.6587145,39301,1.1193,28.11,-7.118482754182537,-0.5705102040816321,66
1764359059.760889,39401,1.1193,28.0,-7.118482754182537,-0.6805102040816315,66
1764359059.8640182,39501,1.1193,28.7,-7.118482754182537,0.019489795918367747,66
1764359059.9660015,39601,1.1193,28.92,-7.118482754182537,0.23948979591837016,66
1764359060.0679033,39701,1.1193,28.62,-7.118482754182537,-0.06051020408163055,66
1764359060.170068,39801,1.1193,28.55,-7.118482754182537,-0.13051020408163083,66
1764359060.2721665,39901,1.1193,29.03,-7.118482754182537,0.3494897959183696,66
1764359060.3746347,40001,1.1193,28.99,-7.118482754182537,0.3094897959183669,66
1764359060.4766028,40101,1.1193,28.4,-7.118482754182537,-0.28051020408163296,66
1764359060.5783997,40201,1.1193,28.15,-7.118482754182537,-0.530510204081633,66
1764359060.6805723,40301,1.1193,29.03,-7.118482754182537,0.3494897959183696,66
1764359060.7838557,40401,1.1193,28.44,-7.118482754182537,-0.24051020408163026,66
1764359060.8863058,40501,1.1193,28.48,-7.118482754182537,-0.20051020408163112,66
1764359060.9886565,40601,1.1193,28.7,-7.118482754182537,0.019489795918367747,66
1764359061.0911086,40701,1.1193,27.68,-7.118482754182537,-1.0005102040816318,66
1764359061.1939173,40801,1.1193,28.15,-7.118482754182537,-0.530510204081633,66
1764359061.295647,40901,1.1193,28.22,-7.118482754182537,-0.4605102040816327,66
1764359061.397536,41001,1.1193,29.03,-7.118482754182537,0.3494897959183696,66
1764359061.4998171,41101,1.1193,27.86,-7.118482754182537,-0.8205102040816321,66
1764359061.6022267,41201,1.1193,28.33,-7.118482754182537,-0.35051020408163325,66
1764359061.7046728,41301,1.1193,28.7,-7.118482754182537,0.019489795918367747,66
1764359061.8079274,41401,1.1241,28.99,-6.7201701634741156,0.3094897959183669,66
1764359061.9101017,41501,1.1144,28.33,-7.52509352386403,-0.35051020408163325,66
1764359062.0122745,41601,1.1193,28.7,-7.118482754182537,0.019489795918367747,66
1764359062.1146579,41701,1.1193,28.48,-7.118482754182537,-0.20051020408163112,66
1764359062.217294,41801,1.1193,27.68,-7.118482754182537,-1.0005102040816318,66
1764359062.3194387,41901,1.1144,27.82,-7.52509352386403,-0.8605102040816313,66
1764359062.421681,42001,1.1193,28.26,-7.118482754182537,-0.42051020408163,66
1764359062.5250235,42101,1.1193,28.26,-7.118482754182537,-0.42051020408163,66
1764359062.6268466,42201,1.1193,29.03,-7.118482754182537,0.3494897959183696,66
1764359062.7291634,42301,1.1193,28.08,-7.118482754182537,-0.6005102040816332,66
1764359062.8316247,42401,1.1193,28.04,-7.118482754182537,-0.6405102040816324,66
1764359062.9338357,42501,1.1193,28.44,-7.118482754182537,-0.24051020408163026,66
1764359063.0359702,42601,1.1144,28.04,-7.52509352386403,-0.6405102040816324,66
1764359063.1408887,42701,1.1144,28.44,-7.52509352386403,-0.24051020408163026,66
1764359063.2431011,42801,1.1193,28.81,-7.118482754182537,0.12948979591836718,66
1764359063.5477471,128801,1.0948,28.04,-9.151536602590046,-0.6405102040816324,66
1764359063.6501455,128901,1.0948,28.81,-9.151536602590046,0.12948979591836718,66
1764359063.7520866,129001,1.0948,27.75,-9.151536602590046,-0.9305102040816315,66
1764359063.854313,129101,1.0948,28.4,-9.151536602590046,-0.28051020408163296,66
1764359063.95796,129201,1.0899,28.48,-9.55814737227154,-0.20051020408163112,66
1764359064.0602858,129301,1.0899,28.44,-9.55814737227154,-0.24051020408163026,66
1764359064.1624508,129401,1.0899,28.51,-9.55814737227154,-0.17051020408162998,66
1764359064.2648315,129501,1.0948,28.59,-9.151536602590046,-0.09051020408163168,66
1764359064.36725,129601,1.0948,27.54,-9.151536602590046,-1.1405102040816324,66
1764359064.4698358,129701,1.0948,29.03,-9.151536602590046,0.3494897959183696,66
1764359064.5734699,129801,1.0948,28.62,-9.151536602590046,-0.06051020408163055,66
1764359064.67624,129901,1.0948,28.66,-9.151536602590046,-0.0205102040816314,66
1764359064.778474,130001,1.0948,27.5,-9.151536602590046,-1.1805102040816315,66
1764359064.8807337,130101,1.0948,28.55,-9.151536602590046,-0.13051020408163083,66
1764359064.9828255,130201,1.0948,28.26,-9.151536602590046,-0.42051020408163,66
1764359065.0858643,130301,1.0948,28.04,-9.151536602590046,-0.6405102040816324,62
1764359065.189024,130401,1.0899,28.88,-9.55814737227154,0.19948979591836746,58
1764359065.29121,130501,1.0948,28.73,-9.151536602590046,0.049489795918368884,55
1764359065.393459,130601,1.0948,28.66,-9.151536602590046,-0.0205102040816314,51
1764359065.4954805,130701,1.0948,28.66,-9.151536602590046,-0.0205102040816314,47
1764359065.597863,130801,1.0948,28.51,-9.151536602590046,-0.17051020408162998,47
1764359065.7000332,130901,1.0948,28.62,-9.151536602590046,-0.06051020408163055,46
1764359065.8023622,131001,1.0948,28.81,-9.151536602590046,0.12948979591836718,45
1764359065.907906,131101,1.0948,28.73,-9.151536602590046,0.049489795918368884,44
1764359066.0106235,131201,1.0948,28.66,-9.151536602590046,-0.0205102040816314,43
1764359066.113015,131301,1.0948,28.51,-9.151536602590046,-0.17051020408162998,42
1764359066.215616,131401,1.0948,28.77,-9.151536602590046,0.08948979591836803,42
1764359066.3185093,131501,1.0948,28.62,-9.151536602590046,-0.06051020408163055,42
1764359066.4212637,131601,1.0948,28.04,-9.151536602590046,-0.6405102040816324,43
1764359066.5231621,131701,1.0948,27.93,-9.151536602590046,-0.7505102040816318,43
1764359066.625008,131801,1.0948,27.72,-9.151536602590046,-0.9605102040816327,43
1764359066.727137,131901,1.0948,27.68,-9.151536602590046,-1.0005102040816318,43
1764359066.8292584,132001,1.0948,28.4,-9.151536602590046,-0.28051020408163296,43
1764359066.931942,132101,1.0899,28.55,-9.55814737227154,-0.13051020408163083,43
1764359067.0343726,132201,1.0899,28.48,-9.55814737227154,-0.20051020408163112,43
1764359067.1381786,132301,1.0899,28.77,-9.55814737227154,0.08948979591836803,43
1764359067.2404344,132401,1.0997,28.92,-8.744925832908551,0.23948979591837016,43
1764359067.3421414,132501,1.0899,28.08,-9.55814737227154,-0.6005102040816332,43
1764359067.4450164,132601,1.0948,28.19,-9.151536602590046,-0.49051020408163026,43
1764359067.5473146,132701,1.0948,28.81,-9.151536602590046,0.12948979591836718,43
1764359067.6498396,132801,1.0997,28.88,-8.744925832908551,0.19948979591836746,43
1764359067.7529898,132901,1.0899,27.82,-9.55814737227154,-0.8605102040816313,43
1764359067.8562207,133001,1.0948,28.55,-9.151536602590046,-0.13051020408163083,43
1764359067.9584498,133101,1.0997,28.88,-8.744925832908551,0.19948979591836746,43
1764359068.0604293,133201,1.0948,28.04,-9.151536602590046,-0.6405102040816324,43
1764359068.1625621,133301,1.0948,28.84,-9.151536602590046,0.15948979591836832,43
1764359068.2643442,133401,1.0948,28.77,-9.151536602590046,0.08948979591836803,43
1764359068.3665757,133501,1.0948,28.73,-9.151536602590046,0.049489795918368884,43
1764359068.470183,133601,1.0899,28.55,-9.55814737227154,-0.13051020408163083,43
1764359068.572777,133701,1.0948,28.7,-9.151536602590046,0.019489795918367747,43
1764359068.6748383,133801,1.0948,28.22,-9.151536602590046,-0.4605102040816327,43
1764359068.77685,133901,1.0948,28.88,-9.151536602590046,0.19948979591836746,43
1764359068.8788118,134001,1.0948,28.95,-9.151536602590046,0.26948979591836775,43
1764359068.9812183,134101,1.0948,29.03,-9.151536602590046,0.3494897959183696,43
1764359069.0880182,134201,1.0948,27.64,-9.151536602590046,-1.040510204081631,43
1764359069.190475,134301,1.0948,28.29,-9.151536602590046,-0.3905102040816324,43
1764359069.2924252,134401,1.0948,28.44,-9.151536602590046,-0.24051020408163026,43
1764359069.3945763,134501,1.0948,27.75,-9.151536602590046,-0.9305102040816315,52
1764359069.4968472,134601,1.0948,28.59,-9.151536602590046,-0.09051020408163168,60
1764359069.599269,134701,1.0948,28.81,-9.151536602590046,0.12948979591836718,68
1764359069.7033684,134801,1.0948,28.62,-9.151536602590046,-0.06051020408163055,77
1764359069.8059475,134901,1.0948,28.73,-9.151536602590046,0.049489795918368884,85
1764359069.9083755,135001,1.0899,28.44,-9.55814737227154,-0.24051020408163026,85
1764359070.0102892,135101,1.0948,28.37,-9.151536602590046,-0.31051020408163055,85
1764359070.1122224,135201,1.0899,28.73,-9.55814737227154,0.049489795918368884,85
1764359070.2149012,135301,1.0948,28.95,-9.151536602590046,0.26948979591836775,85
1764359070.319526,135401,1.0899,28.55,-9.55814737227154,-0.13051020408163083,85
1764359070.4219415,135501,1.0899,28.48,-9.55814737227154,-0.20051020408163112,85
1764359070.5236545,135601,1.0899,28.77,-9.55814737227154,0.08948979591836803,85
1764359070.6257446,135701,1.0899,28.11,-9.55814737227154,-0.5705102040816321,85
1764359070.7279668,135801,1.0899,28.37,-9.55814737227154,-0.31051020408163055,85
1764359070.8300102,135901,1.0899,28.51,-9.55814737227154,-0.17051020408162998,85
1764359070.9365609,136001,1.0948,28.84,-9.151536602590046,0.15948979591836832,85
1764359071.0388117,136101,1.0948,28.66,-9.151536602590046,-0.0205102040816314,85
1764359071.1405716,136201,1.0948,27.64,-9.151536602590046,-1.040510204081631,85
1764359071.2426836,136301,1.0948,28.11,-9.151536602590046,-0.5705102040816321,85
1764359071.3464773,136401,1.0948,27.82,-9.151536602590046,-0.8605102040816313,85
1764359071.4496136,136501,1.0948,27.86,-9.151536602590046,-0.8205102040816321,85
1764359071.5527587,136601,1.0899,28.15,-9.55814737227154,-0.530510204081633,85
1764359071.6547704,136701,1.0948,28.95,-9.151536602590046,0.26948979591836775,85
1764359071.7567127,136801,1.0997,28.73,-8.744925832908551,0.049489795918368884,85
1764359071.858624,136901,1.0899,28.92,-9.55814737227154,0.23948979591837016,85
1764359071.9610932,137001,1.0899,28.88,-9.55814737227154,0.19948979591836746,85
1764359072.063407,137101,1.0899,28.7,-9.55814737227154,0.019489795918367747,85
1764359072.1657948,137201,1.0899,28.77,-9.55814737227154,0.08948979591836803,85
1764359072.2689812,137301,1.0899,28.15,-9.55814737227154,-0.530510204081633,85
1764359072.3713474,137401,1.0899,28.99,-9.55814737227154,0.3094897959183669,85
1764359072.473714,137501,1.0899,27.97,-9.55814737227154,-0.7105102040816327,85
1764359072.5757947,137601,1.0948,28.88,-9.151536602590046,0.19948979591836746,85
1764359072.6782663,137701,1.0899,27.68,-9.55814737227154,-1.0005102040816318,85
1764359072.780531,137801,1.0899,27.54,-9.55814737227154,-1.1405102040816324,85
1764359072.8829267,137901,1.0899,29.06,-9.55814737227154,0.3794897959183672,85
1764359072.9861042,138001,1.0899,28.66,-9.55814737227154,-0.0205102040816314,85
1764359073.0881226,138101,1.0899,28.0,-9.55814737227154,-0.6805102040816315,85
1764359073.1905015,138201,1.0948,28.81,-9.151536602590046,0.12948979591836718,85
1764359073.292868,138301,1.0899,28.37,-9.55814737227154,-0.31051020408163055,85
1764359073.3948936,138401,1.0899,28.66,-9.55814737227154,-0.0205102040816314,85
1764359073.4972181,138501,1.0899,28.77,-9.55814737227154,0.08948979591836803,85
1764359073.6003478,138601,1.085,27.82,-9.964758141953054,-0.8605102040816313,85
1764359073.7031016,138701,1.0899,28.48,-9.55814737227154,-0.20051020408163112,81
1764359073.8053408,138801,1.0899,28.19,-9.55814737227154,-0.49051020408163026,77
1764359073.9069707,138901,1.0899,28.95,-9.55814737227154,0.26948979591836775,73
1764359074.0086458,139001,1.0899,28.77,-9.55814737227154,0.08948979591836803,69
1764359074.110761,139101,1.0899,29.03,-9.55814737227154,0.3494897959183696,65
1764359074.2128708,139201,1.0899,28.59,-9.55814737227154,-0.09051020408163168,65
1764359074.315007,139301,1.0899,28.4,-9.55814737227154,-0.28051020408163296,65
1764359074.4178765,139401,1.0899,28.81,-9.55814737227154,0.12948979591836718,65
1764359074.519672,139501,1.0899,28.88,-9.55814737227154,0.19948979591836746,66
1764359074.6223917,139601,1.0899,28.15,-9.55814737227154,-0.530510204081633,67
1764359074.72497,139701,1.0899,28.62,-9.55814737227154,-0.06051020408163055,67
1764359074.8272386,139801,1.0948,28.88,-9.151536602590046,0.19948979591836746,68
1764359074.9295652,139901,1.0899,28.7,-9.55814737227154,0.019489795918367747,67
1764359075.032971,140001,1.0899,28.29,-9.55814737227154,-0.3905102040816324,66
1764359075.1356158,140101,1.0899,28.59,-9.55814737227154,-0.09051020408163168,65
1764359075.2375264,140201,1.0899,28.51,-9.55814737227154,-0.17051020408162998,63
1764359075.3400683,140301,1.0899,28.29,-9.55814737227154,-0.3905102040816324,62
1764359075.4420266,140401,1.085,27.93,-9.964758141953054,-0.7505102040816318,62
1764359075.5446029,140501,1.0899,28.26,-9.55814737227154,-0.42051020408163,61
1764359075.6468403,140601,1.0899,28.19,-9.55814737227154,-0.49051020408163026,61
1764359075.7495341,140701,1.085,28.4,-9.964758141953054,-0.28051020408163296,60
1764359075.8517528,140801,1.0899,28.77,-9.55814737227154,0.08948979591836803,60
1764359075.9541702,140901,1.085,28.66,-9.964758141953054,-0.0205102040816314,60
1764359076.0566983,141001,1.0899,28.92,-9.55814737227154,0.23948979591837016,60
1764359076.1596727,141101,1.085,27.54,-9.964758141953054,-1.1405102040816324,60
1764359076.2618637,141201,1.085,28.55,-9.964758141953054,-0.13051020408163083,60
1764359076.3644712,141301,1.085,27.39,-9.964758141953054,-1.290510204081631,60
1764359076.4669983,141401,1.0802,28.15,-10.363070732661456,-0.530510204081633,60
1764359076.5688026,141501,1.0802,28.11,-10.363070732661456,-0.5705102040816321,60
1764359076.671103,141601,1.0899,28.88,-9.55814737227154,0.19948979591836746,60
1764359076.7733803,141701,1.085,27.9,-9.964758141953054,-0.780510204081633,60
1764359076.875757,141801,1.085,27.64,-9.964758141953054,-1.040510204081631,60
1764359076.9780908,141901,1.0948,28.62,-9.151536602590046,-0.06051020408163055,60
1764359077.0809329,142001,1.085,28.7,-9.964758141953054,0.019489795918367747,59
1764359077.183802,142101,1.085,28.88,-9.964758141953054,0.19948979591836746,58
1764359077.2859557,142201,1.085,28.99,-9.964758141953054,0.3094897959183669,58
1764359077.388303,142301,1.085,29.03,-9.964758141953054,0.3494897959183696,57
1764359077.4906347,142401,1.085,28.59,-9.964758141953054,-0.09051020408163168,55
1764359077.5937386,142501,1.085,28.44,-9.964758141953054,-0.24051020408163026,55
1764359077.696366,142601,1.085,27.5,-9.964758141953054,-1.1805102040816315,55
1764359077.79882,142701,1.085,28.33,-9.964758141953054,-0.35051020408163325,54
1764359077.9005249,142801,1.0899,29.03,-9.55814737227154,0.3494897959183696,54
1764359078.0022779,142901,1.085,28.37,-9.964758141953054,-0.31051020408163055,54
1764359078.104591,143001,1.085,28.66,-9.964758141953054,-0.0205102040816314,54
1764359078.206757,143101,1.0899,28.55,-9.55814737227154,-0.13051020408163083,54
1764359078.3090186,143201,1.0899,28.33,-9.55814737227154,-0.35051020408163325,54
1764359078.4111755,143301,1.0899,28.33,-9.55814737227154,-0.35051020408163325,55
1764359078.514373,143401,1.085,27.93,-9.964758141953054,-0.7505102040816318,55
1764359078.6169343,143501,1.0899,29.03,-9.55814737227154,0.3494897959183696,55
1764359078.718603,143601,1.085,28.59,-9.964758141953054,-0.09051020408163168,55
1764359078.820701,143701,1.085,28.55,-9.964758141953054,-0.13051020408163083,54
1764359078.922925,143801,1.0899,28.88,-9.55814737227154,0.19948979591836746,54
1764359079.0259068,143901,1.0899,28.29,-9.55814737227154,-0.3905102040816324,54
1764359079.129089,144001,1.085,28.04,-9.964758141953054,-0.6405102040816324,54
1764359079.2314398,144101,1.085,28.73,-9.964758141953054,0.049489795918368884,54
1764359079.3333988,144201,1.085,28.15,-9.964758141953054,-0.530510204081633,54
1764359079.4352868,144301,1.085,28.81,-9.964758141953054,0.12948979591836718,54
1764359079.5373123,144401,1.0899,28.84,-9.55814737227154,0.15948979591836832,54
1764359079.6398737,144501,1.0899,28.66,-9.55814737227154,-0.0205102040816314,54
1764359079.742226,144601,1.0899,28.22,-9.55814737227154,-0.4605102040816327,54
1764359079.8445346,144701,1.0899,28.73,-9.55814737227154,0.049489795918368884,54
1764359079.9474878,144801,1.0948,28.88,-9.151536602590046,0.19948979591836746,54
1764359080.0493183,144901,1.0899,28.4,-9.55814737227154,-0.28051020408163296,52
1764359080.1515095,145001,1.0899,28.29,-9.55814737227154,-0.3905102040816324,50
1764359080.254227,145101,1.0899,28.55,-9.55814737227154,-0.13051020408163083,48
1764359080.3563626,145201,1.0899,28.48,-9.55814737227154,-0.20051020408163112,45
1764359080.4586272,145301,1.0899,28.84,-9.55814737227154,0.15948979591836832,43
1764359080.561497,145401,1.0899,28.62,-9.55814737227154,-0.06051020408163055,42
1764359080.6643288,145501,1.085,28.59,-9.964758141953054,-0.09051020408163168,42
1764359080.7663774,145601,1.085,28.22,-9.964758141953054,-0.4605102040816327,41
1764359080.8682635,145701,1.0899,28.7,-9.55814737227154,0.019489795918367747,41
1764359080.9711137,145801,1.0899,28.37,-9.55814737227154,-0.31051020408163055,41
1764359081.0731168,145901,1.0899,29.03,-9.55814737227154,0.3494897959183696,41
1764359081.1753414,146001,1.085,28.62,-9.964758141953054,-0.06051020408163055,41
1764359081.2782662,146101,1.0899,28.55,-9.55814737227154,-0.13051020408163083,41
1764359081.380469,146201,1.0899,28.48,-9.55814737227154,-0.20051020408163112,41
1764359081.4825253,146301,1.0899,27.54,-9.55814737227154,-1.1405102040816324,41
1764359081.5844853,146401,1.0899,28.0,-9.55814737227154,-0.6805102040816315,41
1764359081.6868124,146501,1.0899,28.48,-9.55814737227154,-0.20051020408163112,41
1764359081.7892358,146601,1.0899,28.62,-9.55814737227154,-0.06051020408163055,41
1764359081.8918772,146701,1.0899,28.29,-9.55814737227154,-0.3905102040816324,41
1764359081.996505,146801,1.0899,28.22,-9.55814737227154,-0.4605102040816327,41
1764359082.0988579,146901,1.0899,28.99,-9.55814737227154,0.3094897959183669,41
1764359082.2010956,147001,1.0899,29.03,-9.55814737227154,0.3494897959183696,41
1764359082.30321,147101,1.0899,28.84,-9.55814737227154,0.15948979591836832,41
1764359082.4053814,147201,1.0899,28.04,-9.55814737227154,-0.6405102040816324,41
1764359082.5082557,147301,1.0899,28.37,-9.55814737227154,-0.31051020408163055,41
1764359082.612368,147401,1.085,27.68,-9.964758141953054,-1.0005102040816318,41
1764359082.7148979,147501,1.0899,28.55,-9.55814737227154,-0.13051020408163083,41
1764359082.8167727,147601,1.0899,27.39,-9.55814737227154,-1.290510204081631,44
1764359082.9187994,147701,1.0899,29.03,-9.55814737227154,0.3494897959183696,47
1764359083.0207396,147801,1.0899,27.54,-9.55814737227154,-1.1405102040816324,50
1764359083.1232688,147901,1.0899,28.51,-9.55814737227154,-0.17051020408162998,53
1764359083.225603,148001,1.0899,28.62,-9.55814737227154,-0.06051020408163055,56
1764359083.3288472,148101,1.0899,28.73,-9.55814737227154,0.049489795918368884,57
1764359083.430925,148201,1.0899,28.7,-9.55814737227154,0.019489795918367747,58
1764359083.5334902,148301,1.0899,28.4,-9.55814737227154,-0.28051020408163296,59
1764359083.6361866,148401,1.0899,28.7,-9.55814737227154,0.019489795918367747,59
1764359083.738799,148501,1.0899,28.15,-9.55814737227154,-0.530510204081633,60
1764359083.8416991,148601,1.0899,28.37,-9.55814737227154,-0.31051020408163055,60
1764359083.9443388,148701,1.0899,28.0,-9.55814737227154,-0.6805102040816315,60
1764359084.0468838,148801,1.0899,28.22,-9.55814737227154,-0.4605102040816327,60
1764359084.149413,148901,1.0899,28.95,-9.55814737227154,0.26948979591836775,60
1764359084.2519948,149001,1.0899,27.64,-9.55814737227154,-1.040510204081631,60
1764359084.354177,149101,1.0899,27.64,-9.55814737227154,-1.040510204081631,60
1764359084.4567926,149201,1.0899,29.03,-9.55814737227154,0.3494897959183696,60
1764359084.5602763,149301,1.0899,27.54,-9.55814737227154,-1.1405102040816324,60
1764359084.6634524,149401,1.0899,28.48,-9.55814737227154,-0.20051020408163112,60
1764359084.7655466,149501,1.0899,28.77,-9.55814737227154,0.08948979591836803,60
1764359084.8673062,149601,1.085,27.75,-9.964758141953054,-0.9305102040816315,59
1764359084.9691339,149701,1.085,28.15,-9.964758141953054,-0.530510204081633,58
1764359085.0711405,149801,1.0899,27.82,-9.55814737227154,-0.8605102040816313,57
1764359085.173599,149901,1.0899,28.59,-9.55814737227154,-0.09051020408163168,56
1764359085.2772183,150001,1.085,28.04,-9.964758141953054,-0.6405102040816324,55
1764359085.3798199,150101,1.085,28.11,-9.964758141953054,-0.5705102040816321,55
1764359085.4824119,150201,1.0899,27.21,-9.55814737227154,-1.4705102040816307,55
1764359085.5848186,150301,1.0899,29.03,-9.55814737227154,0.3494897959183696,54
1764359085.687286,150401,1.085,27.64,-9.964758141953054,-1.040510204081631,54
1764359085.7898977,150501,1.0899,28.95,-9.55814737227154,0.26948979591836775,54
1764359085.8925626,150601,1.0899,28.26,-9.55814737227154,-0.42051020408163,54
1764359085.9951453,150701,1.0899,28.59,-9.55814737227154,-0.09051020408163168,54
1764359086.097169,150801,1.0802,27.9,-10.363070732661456,-0.780510204081633,54
1764359086.199056,150901,1.085,28.95,-9.964758141953054,0.26948979591836775,55
1764359086.3012712,151001,1.0802,27.97,-10.363070732661456,-0.7105102040816327,55
1764359086.4038198,151101,1.085,27.54,-9.964758141953054,-1.1405102040816324,55
1764359086.5062883,151201,1.0802,28.22,-10.363070732661456,-0.4605102040816327,55
1764359086.6098413,151301,1.085,27.93,-9.964758141953054,-0.7505102040816318,55
1764359086.7125645,151401,1.085,28.62,-9.964758141953054,-0.06051020408163055,55
1764359086.8145719,151501,1.085,28.66,-9.964758141953054,-0.0205102040816314,55
1764359086.9169521,151601,1.085,29.03,-9.964758141953054,0.3494897959183696,55
1764359087.0190098,151701,1.085,28.33,-9.964758141953054,-0.35051020408163325,55
1764359087.1214445,151801,1.0802,27.9,-10.363070732661456,-0.780510204081633,54
1764359087.2238882,151901,1.085,28.48,-9.964758141953054,-0.20051020408163112,53
1764359087.3268762,152001,1.085,28.44,-9.964758141953054,-0.24051020408163026,52
1764359087.4300447,152101,1.085,28.66,-9.964758141953054,-0.0205102040816314,52
1764359087.5322373,152201,1.085,27.5,-9.964758141953054,-1.1805102040816315,51
1764359087.6346323,152301,1.085,27.68,-9.964758141953054,-1.0005102040816318,51
1764359087.737452,152401,1.0899,28.37,-9.55814737227154,-0.31051020408163055,51
1764359087.8394542,152501,1.0899,28.37,-9.55814737227154,-0.31051020408163055,51
1764359087.942069,152601,1.0948,28.84,-9.151536602590046,0.15948979591836832,51
1764359088.0441923,152701,1.0899,28.08,-9.55814737227154,-0.6005102040816332,51
1764359088.1459315,152801,1.0802,28.4,-10.363070732661456,-0.28051020408163296,51
1764359088.2480881,152901,1.0899,28.4,-9.55814737227154,-0.28051020408163296,51
1764359088.350126,153001,1.0899,29.03,-9.55814737227154,0.3494897959183696,50
1764359088.4524276,153101,1.0899,28.95,-9.55814737227154,0.26948979591836775,49
1764359088.5548115,153201,1.0899,27.43,-9.55814737227154,-1.2505102040816318,49
1764359088.6585586,153301,1.0899,28.77,-9.55814737227154,0.08948979591836803,48
1764359088.7605755,153401,1.0899,28.92,-9.55814737227154,0.23948979591837016,47
1764359088.8625286,153501,1.085,28.11,-9.964758141953054,-0.5705102040816321,47
1764359088.9646556,153601,1.0899,27.68,-9.55814737227154,-1.0005102040816318,47
1764359089.0667348,153701,1.0899,27.54,-9.55814737227154,-1.1405102040816324,47
1764359089.1692622,153801,1.0899,28.22,-9.55814737227154,-0.4605102040816327,47
1764359089.2716422,153901,1.0899,28.7,-9.55814737227154,0.019489795918367747,47
1764359089.3748856,154001,1.0899,28.37,-9.55814737227154,-0.31051020408163055,47
1764359089.4774837,154101,1.0899,28.51,-9.55814737227154,-0.17051020408162998,47
1764359089.5797098,154201,1.0899,27.57,-9.55814737227154,-1.1105102040816313,47
1764359089.6819196,154301,1.0899,29.06,-9.55814737227154,0.3794897959183672,47
1764359089.7844057,154401,1.0899,28.88,-9.55814737227154,0.19948979591836746,47
1764359089.8865304,154501,1.0899,28.44,-9.55814737227154,-0.24051020408163026,47
1764359089.9890902,154601,1.0899,28.88,-9.55814737227154,0.19948979591836746,47
1764359090.0913122,154701,1.0899,28.73,-9.55814737227154,0.049489795918368884,47
1764359090.1934075,154801,1.085,28.33,-9.964758141953054,-0.35051020408163325,46
1764359090.29573,154901,1.0899,28.04,-9.55814737227154,-0.6405102040816324,45
1764359090.397791,155001,1.0899,29.03,-9.55814737227154,0.3494897959183696,44
1764359090.4996772,155101,1.085,27.82,-9.964758141953054,-0.8605102040816313,44
1764359090.6021574,155201,1.0899,28.11,-9.55814737227154,-0.5705102040816321,44
1764359090.7055693,155301,1.0899,28.0,-9.55814737227154,-0.6805102040816315,45
1764359090.8081124,155401,1.0899,28.77,-9.55814737227154,0.08948979591836803,45
1764359090.9099758,155501,1.0899,28.66,-9.55814737227154,-0.0205102040816314,46
1764359091.0117667,155601,1.0753,28.37,-10.76968150234297,-0.31051020408163055,45
1764359091.1140528,155701,1.0899,28.44,-9.55814737227154,-0.24051020408163026,44
1764359091.2160976,155801,1.0899,28.48,-9.55814737227154,-0.20051020408163112,43
1764359091.3179157,155901,1.085,27.68,-9.964758141953054,-1.0005102040816318,42
1764359091.420745,156001,1.0899,28.81,-9.55814737227154,0.12948979591836718,43
1764359091.5238752,156101,1.0899,28.55,-9.55814737227154,-0.13051020408163083,45
1764359091.626133,156201,1.0899,28.88,-9.55814737227154,0.19948979591836746,46
1764359091.728258,156301,1.0899,28.55,-9.55814737227154,-0.13051020408163083,48
1764359091.8308814,156401,1.0899,28.48,-9.55814737227154,-0.20051020408163112,50
1764359091.9335155,156501,1.085,27.68,-9.964758141953054,-1.0005102040816318,50
1764359092.0362043,156601,1.0899,27.93,-9.55814737227154,-0.7505102040816318,50
1764359092.1405585,156701,1.0899,28.77,-9.55814737227154,0.08948979591836803,50
1764359092.2427998,156801,1.085,28.51,-9.964758141953054,-0.17051020408162998,50
1764359092.3446715,156901,1.0899,28.92,-9.55814737227154,0.23948979591837016,50
1764359092.447302,157001,1.085,28.26,-9.964758141953054,-0.42051020408163,51
1764359092.5499969,157101,1.0899,28.19,-9.55814737227154,-0.49051020408163026,51
1764359092.6526425,157201,1.085,28.04,-9.964758141953054,-0.6405102040816324,51
1764359092.7561808,157301,1.085,28.66,-9.964758141953054,-0.0205102040816314,50
1764359092.8584528,157401,1.0899,28.99,-9.55814737227154,0.3094897959183669,50
1764359092.9607344,157501,1.0802,28.0,-10.363070732661456,-0.6805102040816315,51
1764359093.0628355,157601,1.0899,28.73,-9.55814737227154,0.049489795918368884,51
1764359093.165036,157701,1.0802,28.66,-10.363070732661456,-0.0205102040816314,53
1764359093.2675526,157801,1.0899,28.48,-9.55814737227154,-0.20051020408163112,54
1764359093.3703175,157901,1.085,28.4,-9.964758141953054,-0.28051020408163296,54
1764359093.473201,158001,1.0899,28.55,-9.55814737227154,-0.13051020408163083,54
1764359093.5757358,158101,1.0899,28.7,-9.55814737227154,0.019489795918367747,53
1764359093.678157,158201,1.0899,27.97,-9.55814737227154,-0.7105102040816327,53
1764359093.7812428,158301,1.085,28.19,-9.964758141953054,-0.49051020408163026,53
1764359093.8837483,158401,1.085,27.82,-9.964758141953054,-0.8605102040816313,54
1764359093.98639,158501,1.085,28.95,-9.964758141953054,0.26948979591836775,55
1764359094.089089,158601,1.085,28.7,-9.964758141953054,0.019489795918367747,56
1764359094.1910312,158701,1.0899,28.77,-9.55814737227154,0.08948979591836803,57
1764359094.293239,158801,1.0899,28.84,-9.55814737227154,0.15948979591836832,57
1764359094.3956413,158901,1.085,28.4,-9.964758141953054,-0.28051020408163296,58
1764359094.4982204,159001,1.085,28.33,-9.964758141953054,-0.35051020408163325,58
1764359094.601005,159101,1.085,28.66,-9.964758141953054,-0.0205102040816314,59
1764359094.704631,159201,1.0899,28.77,-9.55814737227154,0.08948979591836803,60
1764359094.8066757,159301,1.0704,27.93,-11.176292272024464,-0.7505102040816318,60
1764359094.908683,159401,1.0899,29.03,-9.55814737227154,0.3494897959183696,60
1764359095.0113542,159501,1.0899,28.19,-9.55814737227154,-0.49051020408163026,60
1764359095.1138167,159601,1.0899,28.92,-9.55814737227154,0.23948979591837016,60
1764359095.2159898,159701,1.0802,27.93,-10.363070732661456,-0.7505102040816318,58
1764359095.3184304,159801,1.0899,27.68,-9.55814737227154,-1.0005102040816318,55
1764359095.4207392,159901,1.0899,28.4,-9.55814737227154,-0.28051020408163296,53
1764359095.5227652,160001,1.0899,28.95,-9.55814737227154,0.26948979591836775,51
1764359095.6252458,160101,1.0899,27.57,-9.55814737227154,-1.1105102040816313,49
1764359095.72784,160201,1.0899,28.81,-9.55814737227154,0.12948979591836718,50
1764359095.8312004,160301,1.0899,29.03,-9.55814737227154,0.3494897959183696,51
1764359095.9340508,160401,1.0899,27.5,-9.55814737227154,-1.1805102040816315,56
1764359096.0374515,160501,1.0899,29.03,-9.55814737227154,0.3494897959183696,60
1764359096.139376,160601,1.0899,27.75,-9.55814737227154,-0.9305102040816315,63
1764359096.241337,160701,1.0899,28.62,-9.55814737227154,-0.06051020408163055,66
1764359096.3436751,160801,1.0899,28.37,-9.55814737227154,-0.31051020408163055,69
1764359096.445792,160901,1.0899,28.84,-9.55814737227154,0.15948979591836832,69
1764359096.5480306,161001,1.085,27.9,-9.964758141953054,-0.780510204081633,69
1764359096.649804,161101,1.085,27.9,-9.964758141953054,-0.780510204081633,69
1764359096.7535756,161201,1.0899,28.84,-9.55814737227154,0.15948979591836832,69
1764359096.8560057,161301,1.0899,28.66,-9.55814737227154,-0.0205102040816314,70
1764359096.9580553,161401,1.0899,28.29,-9.55814737227154,-0.3905102040816324,70
1764359097.0601504,161501,1.0899,27.5,-9.55814737227154,-1.1805102040816315,70
1764359097.1626236,161601,1.0899,28.66,-9.55814737227154,-0.0205102040816314,70
1764359097.2656782,161701,1.0899,28.59,-9.55814737227154,-0.09051020408163168,70
1764359097.36933,161801,1.0899,28.7,-9.55814737227154,0.019489795918367747,70
1764359097.4720025,161901,1.0899,28.0,-9.55814737227154,-0.6805102040816315,70
1764359097.5742364,162001,1.0899,28.19,-9.55814737227154,-0.49051020408163026,70
1764359097.6766155,162101,1.085,28.51,-9.964758141953054,-0.17051020408162998,69
1764359097.7785664,162201,1.0899,28.26,-9.55814737227154,-0.42051020408163,69
1764359097.880279,162301,1.0899,28.62,-9.55814737227154,-0.06051020408163055,69
1764359097.9825504,162401,1.0899,28.66,-9.55814737227154,-0.0205102040816314,69
1764359098.0855925,162501,1.0899,28.62,-9.55814737227154,-0.06051020408163055,69
1764359098.188329,162601,1.085,28.0,-9.964758141953054,-0.6805102040816315,69
1764359098.2906356,162701,1.085,28.73,-9.964758141953054,0.049489795918368884,70
1764359098.3929844,162801,1.085,28.59,-9.964758141953054,-0.09051020408163168,70
1764359098.4955575,162901,1.085,28.95,-9.964758141953054,0.26948979591836775,71
1764359098.598263,163001,1.085,28.88,-9.964758141953054,0.19948979591836746,72
1764359098.700797,163101,1.085,28.37,-9.964758141953054,-0.31051020408163055,72
1764359098.8035235,163201,1.085,29.03,-9.964758141953054,0.3494897959183696,73
1764359098.9055996,163301,1.085,27.9,-9.964758141953054,-0.780510204081633,73
1764359099.0081806,163401,1.085,28.81,-9.964758141953054,0.12948979591836718,73
1764359099.110094,163501,1.085,29.03,-9.964758141953054,0.3494897959183696,73
1764359099.2133777,163601,1.0899,28.95,-9.55814737227154,0.26948979591836775,73
1764359099.315726,163701,1.085,28.59,-9.964758141953054,-0.09051020408163168,72
1764359099.4202614,163801,1.0899,28.81,-9.55814737227154,0.12948979591836718,71
1764359099.5223756,163901,1.0899,28.7,-9.55814737227154,0.019489795918367747,70
1764359099.6248996,164001,1.0899,28.37,-9.55814737227154,-0.31051020408163055,69
1764359099.7273664,164101,1.0899,28.7,-9.55814737227154,0.019489795918367747,68
1764359099.8293614,164201,1.0948,28.84,-9.151536602590046,0.15948979591836832,68
1764359099.9313183,164301,1.0899,28.77,-9.55814737227154,0.08948979591836803,69
1764359100.0348613,164401,1.0899,28.29,-9.55814737227154,-0.3905102040816324,69
1764359100.137007,164501,1.085,28.48,-9.964758141953054,-0.20051020408163112,70
1764359100.2392602,164601,1.085,28.15,-9.964758141953054,-0.530510204081633,70
1764359100.3413136,164701,1.085,28.37,-9.964758141953054,-0.31051020408163055,70
1764359100.443759,164801,1.085,28.44,-9.964758141953054,-0.24051020408163026,70
1764359100.5461967,164901,1.085,28.99,-9.964758141953054,0.3094897959183669,70
1764359100.64866,165001,1.085,28.7,-9.964758141953054,0.019489795918367747,70
1764359100.7512772,165101,1.085,28.7,-9.964758141953054,0.019489795918367747,70
1764359100.853692,165201,1.0899,28.84,-9.55814737227154,0.15948979591836832,70
1764359100.9563773,165301,1.0899,28.33,-9.55814737227154,-0.35051020408163325,70
1764359101.0583394,165401,1.085,28.95,-9.964758141953054,0.26948979591836775,70
1764359101.160942,165501,1.085,28.62,-9.964758141953054,-0.06051020408163055,70
1764359101.2632868,165601,1.085,28.66,-9.964758141953054,-0.0205102040816314,69
1764359101.368494,165701,1.085,29.03,-9.964758141953054,0.3494897959183696,69
1764359101.4707878,165801,1.085,28.37,-9.964758141953054,-0.31051020408163055,69
1764359101.5729814,165901,1.085,28.33,-9.964758141953054,-0.35051020408163325,69
1764359101.6755114,166001,1.085,27.54,-9.964758141953054,-1.1405102040816324,69
1764359101.7780929,166101,1.085,28.48,-9.964758141953054,-0.20051020408163112,69
1764359101.880452,166201,1.085,28.73,-9.964758141953054,0.049489795918368884,69
1764359101.9851332,166301,1.085,28.81,-9.964758141953054,0.12948979591836718,69
1764359102.0873177,166401,1.085,28.59,-9.964758141953054,-0.09051020408163168,69
1764359102.1898742,166501,1.085,28.22,-9.964758141953054,-0.4605102040816327,69
1764359102.2923439,166601,1.085,28.92,-9.964758141953054,0.23948979591837016,69
1764359102.3953457,166701,1.085,28.33,-9.964758141953054,-0.35051020408163325,69
1764359102.4998293,166801,1.085,27.82,-9.964758141953054,-0.8605102040816313,69
1764359102.6024296,166901,1.085,28.33,-9.964758141953054,-0.35051020408163325,69
1764359102.7045846,167001,1.085,28.55,-9.964758141953054,-0.13051020408163083,69
1764359102.8068914,167101,1.085,27.9,-9.964758141953054,-0.780510204081633,69
1764359102.909049,167201,1.0899,28.84,-9.55814737227154,0.15948979591836832,69
1764359103.0114877,167301,1.085,28.26,-9.964758141953054,-0.42051020408163,67
1764359103.1188145,167401,1.085,28.88,-9.964758141953054,0.19948979591836746,65
1764359103.2212996,167501,1.0753,27.97,-10.76968150234297,-0.7105102040816327,63
1764359103.3239977,167601,1.085,28.29,-9.964758141953054,-0.3905102040816324,61
1764359103.426206,167701,1.085,28.92,-9.964758141953054,0.23948979591837016,59
1764359103.5290468,167801,1.0802,28.11,-10.363070732661456,-0.5705102040816321,59
1764359103.6322885,167901,1.085,28.19,-9.964758141953054,-0.49051020408163026,58
1764359103.7345805,168001,1.0753,27.57,-10.76968150234297,-1.1105102040816313,58
1764359103.8367565,168101,1.085,27.5,-9.964758141953054,-1.1805102040816315,57
1764359103.938464,168201,1.0753,27.64,-10.76968150234297,-1.040510204081631,57
1764359104.0407171,168301,1.085,27.75,-9.964758141953054,-0.9305102040816315,56
1764359104.143208,168401,1.085,28.48,-9.964758141953054,-0.20051020408163112,56
1764359104.2454157,168501,1.085,28.48,-9.964758141953054,-0.20051020408163112,56
1764359104.3489647,168601,1.085,27.64,-9.964758141953054,-1.040510204081631,56
1764359104.452195,168701,1.085,28.62,-9.964758141953054,-0.06051020408163055,55
1764359104.554156,168801,1.085,28.73,-9.964758141953054,0.049489795918368884,55
1764359104.6564138,168901,1.085,27.54,-9.964758141953054,-1.1405102040816324,54
1764359104.7586262,169001,1.085,28.88,-9.964758141953054,0.19948979591836746,54
1764359104.8610055,169101,1.0899,28.95,-9.55814737227154,0.26948979591836775,54
1764359104.9634786,169201,1.085,28.55,-9.964758141953054,-0.13051020408163083,53
1764359105.0664845,169301,1.085,28.66,-9.964758141953054,-0.0205102040816314,52
1764359105.1687322,169401,1.0899,28.77,-9.55814737227154,0.08948979591836803,50
1764359105.2707334,169501,1.085,28.55,-9.964758141953054,-0.13051020408163083,49
1764359105.3728995,169601,1.0899,28.81,-9.55814737227154,0.12948979591836718,47
1764359105.4752192,169701,1.085,28.29,-9.964758141953054,-0.3905102040816324,46
1764359105.5773852,169801,1.085,28.04,-9.964758141953054,-0.6405102040816324,46
1764359105.6799338,169901,1.085,28.51,-9.964758141953054,-0.17051020408162998,45
1764359105.7826812,170001,1.0802,27.97,-10.363070732661456,-0.7105102040816327,45
1764359105.8847797,170101,1.085,27.72,-9.964758141953054,-0.9605102040816327,45
1764359105.9871786,170201,1.085,28.77,-9.964758141953054,0.08948979591836803,45
1764359106.0894337,170301,1.085,28.62,-9.964758141953054,-0.06051020408163055,45
1764359106.191926,170401,1.085,27.82,-9.964758141953054,-0.8605102040816313,45
1764359106.2946362,170501,1.085,28.99,-9.964758141953054,0.3094897959183669,45
1764359106.3975146,170601,1.0899,28.95,-9.55814737227154,0.26948979591836775,45
1764359106.499651,170701,1.0899,29.03,-9.55814737227154,0.3494897959183696,45
1764359106.601842,170801,1.085,28.92,-9.964758141953054,0.23948979591837016,45
1764359106.7039955,170901,1.085,28.11,-9.964758141953054,-0.5705102040816321,45
1764359106.8069139,171001,1.085,28.15,-9.964758141953054,-0.530510204081633,45
1764359106.908874,171101,1.085,28.51,-9.964758141953054,-0.17051020408162998,45
1764359107.0118754,171201,1.085,28.66,-9.964758141953054,-0.0205102040816314,45
1764359107.114526,171301,1.085,28.19,-9.964758141953054,-0.49051020408163026,44
1764359107.2167783,171401,1.0802,28.04,-10.363070732661456,-0.6405102040816324,44
1764359107.3190582,171501,1.085,28.29,-9.964758141953054,-0.3905102040816324,43
1764359107.4211743,171601,1.0948,28.11,-9.151536602590046,-0.5705102040816321,43
1764359107.5240595,171701,1.0704,28.51,-11.176292272024464,-0.17051020408162998,43
1764359107.6261287,171801,1.085,28.73,-9.964758141953054,0.049489795918368884,44
1764359107.7285917,171901,1.0704,28.77,-11.176292272024464,0.08948979591836803,44
1764359107.8309324,172001,1.085,28.66,-9.964758141953054,-0.0205102040816314,44
1764359107.9328284,172101,1.085,28.92,-9.964758141953054,0.23948979591837016,45
1764359108.0346396,172201,1.085,28.66,-9.964758141953054,-0.0205102040816314,45
1764359108.136992,172301,1.085,28.59,-9.964758141953054,-0.09051020408163168,45
1764359108.238862,172401,1.085,28.84,-9.964758141953054,0.15948979591836832,45
1764359108.3409266,172501,1.0899,28.88,-9.55814737227154,0.19948979591836746,45
1764359108.444029,172601,1.085,28.33,-9.964758141953054,-0.35051020408163325,45
1764359108.5489738,172701,1.085,28.7,-9.964758141953054,0.019489795918367747,45
1764359108.6518216,172801,1.085,28.55,-9.964758141953054,-0.13051020408163083,46
1764359108.7543979,172901,1.085,28.51,-9.964758141953054,-0.17051020408162998,46
1764359108.8569758,173001,1.0899,27.9,-9.55814737227154,-0.780510204081633,47
1764359108.960272,173101,1.0948,28.84,-9.151536602590046,0.15948979591836832,47
1764359109.0630877,173201,1.085,28.0,-9.964758141953054,-0.6805102040816315,47
1764359109.1660776,173301,1.085,28.4,-9.964758141953054,-0.28051020408163296,48
1764359109.2682123,173401,1.0899,28.55,-9.55814737227154,-0.13051020408163083,49
1764359109.3703895,173501,1.0948,28.88,-9.151536602590046,0.19948979591836746,49
1764359109.4725757,173601,1.0899,28.33,-9.55814737227154,-0.35051020408163325,48
1764359109.574662,173701,1.0899,28.88,-9.55814737227154,0.19948979591836746,47
1764359109.6781123,173801,1.085,28.33,-9.964758141953054,-0.35051020408163325,46
1764359109.7812288,173901,1.085,28.48,-9.964758141953054,-0.20051020408163112,45
1764359109.883734,174001,1.085,28.29,-9.964758141953054,-0.3905102040816324,45
1764359109.9856975,174101,1.085,28.51,-9.964758141953054,-0.17051020408162998,44
1764359110.088117,174201,1.0899,29.03,-9.55814737227154,0.3494897959183696,44
1764359110.190462,174301,1.0899,28.73,-9.55814737227154,0.049489795918368884,44
1764359110.292796,174401,1.0899,29.03,-9.55814737227154,0.3494897959183696,43
1764359110.3955996,174501,1.0704,27.75,-11.176292272024464,-0.9305102040816315,43
1764359110.4983573,174601,1.085,28.73,-9.964758141953054,0.049489795918368884,44
1764359110.6006553,174701,1.085,28.55,-9.964758141953054,-0.13051020408163083,45
1764359110.7032232,174801,1.0899,29.03,-9.55814737227154,0.3494897959183696,45
1764359110.805846,174901,1.0899,28.51,-9.55814737227154,-0.17051020408162998,46
1764359110.9086294,175001,1.0899,27.68,-9.55814737227154,-1.0005102040816318,46
1764359111.0113049,175101,1.0899,28.37,-9.55814737227154,-0.31051020408163055,47
1764359111.1137807,175201,1.0899,28.55,-9.55814737227154,-0.13051020408163083,47
1764359111.2157686,175301,1.0899,27.86,-9.55814737227154,-0.8205102040816321,48
1764359111.3178003,175401,1.0899,28.33,-9.55814737227154,-0.35051020408163325,49
1764359111.419992,175501,1.0899,28.99,-9.55814737227154,0.3094897959183669,50
1764359111.5222669,175601,1.0899,28.33,-9.55814737227154,-0.35051020408163325,50
1764359111.626505,175701,1.0899,28.99,-9.55814737227154,0.3094897959183669,50
1764359111.7290335,175801,1.0948,28.92,-9.151536602590046,0.23948979591837016,50
1764359111.8309228,175901,1.0899,29.03,-9.55814737227154,0.3494897959183696,50
1764359111.9331043,176001,1.085,27.79,-9.964758141953054,-0.8905102040816324,49
1764359112.0355968,176101,1.0899,27.72,-9.55814737227154,-0.9605102040816327,49
1764359112.1378946,176201,1.085,27.9,-9.964758141953054,-0.780510204081633,49
1764359112.240251,176301,1.085,28.7,-9.964758141953054,0.019489795918367747,48
1764359112.3437085,176401,1.0899,28.95,-9.55814737227154,0.26948979591836775,48
1764359112.4460113,176501,1.0899,28.26,-9.55814737227154,-0.42051020408163,48
1764359112.5480514,176601,1.0899,28.59,-9.55814737227154,-0.09051020408163168,48
1764359112.6499968,176701,1.0948,28.81,-9.151536602590046,0.12948979591836718,48
1764359112.752578,176801,1.0899,28.88,-9.55814737227154,0.19948979591836746,49
1764359112.854619,176901,1.0704,27.9,-11.176292272024464,-0.780510204081633,49
1764359112.957372,177001,1.0802,27.86,-10.363070732661456,-0.8205102040816321,49
1764359113.0606976,177101,1.0899,28.88,-9.55814737227154,0.19948979591836746,51
1764359113.1627538,177201,1.085,28.51,-9.964758141953054,-0.17051020408162998,53
1764359113.2645464,177301,1.0899,28.99,-9.55814737227154,0.3094897959183669,55
1764359113.367156,177401,1.0802,28.29,-10.363070732661456,-0.3905102040816324,58
1764359113.4691954,177501,1.085,28.95,-9.964758141953054,0.26948979591836775,60
1764359113.571615,177601,1.085,27.39,-9.964758141953054,-1.290510204081631,61
1764359113.6739159,177701,1.085,28.29,-9.964758141953054,-0.3905102040816324,61
1764359113.7768264,177801,1.085,29.03,-9.964758141953054,0.3494897959183696,62
1764359113.8796918,177901,1.0802,28.04,-10.363070732661456,-0.6405102040816324,62
1764359113.9819338,178001,1.0899,28.81,-9.55814737227154,0.12948979591836718,62
1764359114.084237,178101,1.085,28.15,-9.964758141953054,-0.530510204081633,62
1764359114.1865938,178201,1.085,28.44,-9.964758141953054,-0.24051020408163026,63
1764359114.2887633,178301,1.085,28.37,-9.964758141953054,-0.31051020408163055,63
1764359114.3909602,178401,1.0899,28.88,-9.55814737227154,0.19948979591836746,63
1764359114.4942064,178501,1.0948,28.77,-9.151536602590046,0.08948979591836803,64
1764359114.5960588,178601,1.085,28.4,-9.964758141953054,-0.28051020408163296,63
1764359114.6982276,178701,1.085,27.9,-9.964758141953054,-0.780510204081633,62
1764359114.8006146,178801,1.085,28.7,-9.964758141953054,0.019489795918367747,62
1764359114.9028306,178901,1.0899,27.64,-9.55814737227154,-1.040510204081631,61
1764359115.004824,179001,1.0899,28.22,-9.55814737227154,-0.4605102040816327,60
1764359115.108797,179101,1.0899,28.55,-9.55814737227154,-0.13051020408163083,60
1764359115.2108812,179201,1.0899,28.59,-9.55814737227154,-0.09051020408163168,60
1764359115.3126044,179301,1.0899,28.11,-9.55814737227154,-0.5705102040816321,60
1764359115.415509,179401,1.0899,28.33,-9.55814737227154,-0.35051020408163325,60
1764359115.518471,179501,1.085,28.66,-9.964758141953054,-0.0205102040816314,61
1764359115.6208837,179601,1.0899,28.22,-9.55814737227154,-0.4605102040816327,61
1764359115.7237773,179701,1.0899,28.19,-9.55814737227154,-0.49051020408163026,62
1764359115.8277807,179801,1.085,27.9,-9.964758141953054,-0.780510204081633,62
1764359115.9297194,179901,1.0655,28.0,-11.582903041705976,-0.6805102040816315,62
1764359116.031462,180001,1.085,28.81,-9.964758141953054,0.12948979591836718,61
1764359116.133863,180101,1.085,28.84,-9.964758141953054,0.15948979591836832,60
1764359116.235933,180201,1.085,29.03,-9.964758141953054,0.3494897959183696,60
1764359116.3388326,180301,1.085,28.48,-9.964758141953054,-0.20051020408163112,60
1764359116.4422638,180401,1.0802,28.73,-10.363070732661456,0.049489795918368884,60
1764359116.5443654,180501,1.085,28.55,-9.964758141953054,-0.13051020408163083,60
1764359116.6463675,180601,1.085,28.77,-9.964758141953054,0.08948979591836803,61
1764359116.74878,180701,1.085,28.62,-9.964758141953054,-0.06051020408163055,62
1764359116.8511293,180801,1.0753,27.93,-10.76968150234297,-0.7505102040816318,63
1764359116.9533768,180901,1.085,27.82,-9.964758141953054,-0.8605102040816313,64
1764359117.056271,181001,1.085,28.55,-9.964758141953054,-0.13051020408163083,64
1764359117.158876,181101,1.085,28.22,-9.964758141953054,-0.4605102040816327,64
1764359117.261023,181201,1.085,27.5,-9.964758141953054,-1.1805102040816315,64
1764359117.3630695,181301,1.085,28.19,-9.964758141953054,-0.49051020408163026,64
1764359117.4650426,181401,1.085,28.62,-9.964758141953054,-0.06051020408163055,64
1764359117.5673244,181501,1.085,28.48,-9.964758141953054,-0.20051020408163112,63
1764359117.6694913,181601,1.085,28.48,-9.964758141953054,-0.20051020408163112,63
1764359117.7719045,181701,1.085,28.26,-9.964758141953054,-0.42051020408163,63
1764359117.8745852,181801,1.0899,28.84,-9.55814737227154,0.15948979591836832,63
1764359117.9768958,181901,1.0802,28.22,-10.363070732661456,-0.4605102040816327,61
1764359118.0793061,182001,1.085,28.26,-9.964758141953054,-0.42051020408163,58
1764359118.181884,182101,1.085,28.55,-9.964758141953054,-0.13051020408163083,56
1764359118.284367,182201,1.085,28.62,-9.964758141953054,-0.06051020408163055,54
1764359118.3871446,182301,1.085,28.37,-9.964758141953054,-0.31051020408163055,51
1764359118.491968,182401,1.085,29.03,-9.964758141953054,0.3494897959183696,51
1764359118.5938435,182501,1.085,29.03,-9.964758141953054,0.3494897959183696,51
1764359118.6959918,182601,1.0899,28.33,-9.55814737227154,-0.35051020408163325,51
1764359118.7981462,182701,1.0899,28.88,-9.55814737227154,0.19948979591836746,50
1764359118.9007854,182801,1.0899,28.88,-9.55814737227154,0.19948979591836746,50
1764359119.0032053,182901,1.085,28.37,-9.964758141953054,-0.31051020408163055,50
1764359119.1098857,183001,1.085,28.92,-9.964758141953054,0.23948979591837016,51
1764359119.2127578,183101,1.085,28.44,-9.964758141953054,-0.24051020408163026,51
1764359119.3146777,183201,1.085,28.7,-9.964758141953054,0.019489795918367747,51
1764359119.4173825,183301,1.0802,28.0,-10.363070732661456,-0.6805102040816315,52
1764359119.519781,183401,1.0899,28.84,-9.55814737227154,0.15948979591836832,51
1764359119.6235037,183501,1.085,28.29,-9.964758141953054,-0.3905102040816324,51
1764359119.7253454,183601,1.0899,28.88,-9.55814737227154,0.19948979591836746,51
1764359119.8270998,183701,1.0802,28.11,-10.363070732661456,-0.5705102040816321,51
1764359119.930016,183801,1.0802,28.0,-10.363070732661456,-0.6805102040816315,51
1764359120.031797,183901,1.085,27.82,-9.964758141953054,-0.8605102040816313,52
1764359120.1348374,184001,1.085,28.51,-9.964758141953054,-0.17051020408162998,51
1764359120.2378647,184101,1.085,28.73,-9.964758141953054,0.049489795918368884,52
1764359120.3403554,184201,1.085,28.19,-9.964758141953054,-0.49051020408163026,53
1764359120.4425824,184301,1.0802,28.0,-10.363070732661456,-0.6805102040816315,53
1764359120.5445633,184401,1.085,28.48,-9.964758141953054,-0.20051020408163112,54
1764359120.6470935,184501,1.0802,28.77,-10.363070732661456,0.08948979591836803,55
1764359120.749607,184601,1.0802,28.59,-10.363070732661456,-0.09051020408163168,55
1764359120.8521485,184701,1.0802,29.03,-10.363070732661456,0.3494897959183696,55
1764359120.9557574,184801,1.0802,28.48,-10.363070732661456,-0.20051020408163112,55
1764359121.0579722,184901,1.085,28.77,-9.964758141953054,0.08948979591836803,55
1764359121.1601894,185001,1.085,28.73,-9.964758141953054,0.049489795918368884,55
1764359121.263056,185101,1.0802,28.66,-10.363070732661456,-0.0205102040816314,55
1764359121.3651028,185201,1.0704,28.04,-11.176292272024464,-0.6405102040816324,55
1764359121.4680188,185301,1.0802,27.54,-10.363070732661456,-1.1405102040816324,55
1764359121.5716457,185401,1.085,27.46,-9.964758141953054,-1.2205102040816307,55
1764359121.674502,185501,1.085,28.77,-9.964758141953054,0.08948979591836803,55
1764359121.77672,185601,1.0802,28.84,-10.363070732661456,0.15948979591836832,55
1764359121.8797727,185701,1.085,28.81,-9.964758141953054,0.12948979591836718,55
1764359121.9819791,185801,1.085,28.44,-9.964758141953054,-0.24051020408163026,55
1764359122.0845082,185901,1.0753,27.86,-10.76968150234297,-0.8205102040816321,55
1764359122.1872988,186001,1.0802,28.0,-10.363070732661456,-0.6805102040816315,55
1764359122.2906077,186101,1.085,28.15,-9.964758141953054,-0.530510204081633,54
1764359122.3926752,186201,1.085,28.62,-9.964758141953054,-0.06051020408163055,53
1764359122.494791,186301,1.085,28.55,-9.964758141953054,-0.13051020408163083,52
1764359122.5974739,186401,1.085,28.37,-9.964758141953054,-0.31051020408163055,52
1764359122.6992607,186501,1.0899,28.77,-9.55814737227154,0.08948979591836803,52
1764359122.8020985,186601,1.085,28.48,-9.964758141953054,-0.20051020408163112,52
1764359122.9060857,186701,1.0802,28.11,-10.363070732661456,-0.5705102040816321,52
1764359123.007964,186801,1.085,28.88,-9.964758141953054,0.19948979591836746,52
1764359123.110051,186901,1.085,28.22,-9.964758141953054,-0.4605102040816327,52
1764359123.2121797,187001,1.085,28.77,-9.964758141953054,0.08948979591836803,52
1764359123.3148487,187101,1.085,28.4,-9.964758141953054,-0.28051020408163296,52
1764359123.417206,187201,1.085,28.66,-9.964758141953054,-0.0205102040816314,52
1764359123.5206196,187301,1.085,27.68,-9.964758141953054,-1.0005102040816318,52
1764359123.6227767,187401,1.0899,28.22,-9.55814737227154,-0.4605102040816327,52
1764359123.724782,187501,1.0802,28.11,-10.363070732661456,-0.5705102040816321,49
1764359123.8271582,187601,1.0899,28.92,-9.55814737227154,0.23948979591837016,47
1764359123.9288373,187701,1.085,28.73,-9.964758141953054,0.049489795918368884,45
1764359124.0313256,187801,1.085,27.9,-9.964758141953054,-0.780510204081633,42
1764359124.1335871,187901,1.085,28.29,-9.964758141953054,-0.3905102040816324,42
1764359124.2368803,188001,1.0802,27.97,-10.363070732661456,-0.7105102040816327,42
1764359124.3391242,188101,1.085,28.88,-9.964758141953054,0.19948979591836746,42
1764359124.4418561,188201,1.085,28.84,-9.964758141953054,0.15948979591836832,42
1764359124.544095,188301,1.0753,27.64,-10.76968150234297,-1.040510204081631,42
1764359124.6465425,188401,1.085,29.03,-9.964758141953054,0.3494897959183696,42
1764359124.7488334,188501,1.0753,27.86,-10.76968150234297,-0.8205102040816321,42
1764359124.8516183,188601,1.0802,28.44,-10.363070732661456,-0.24051020408163026,42
1764359124.9549787,188701,1.0802,28.7,-10.363070732661456,0.019489795918367747,42
1764359125.0567474,188801,1.085,28.29,-9.964758141953054,-0.3905102040816324,42
1764359125.1592298,188901,1.0802,28.15,-10.363070732661456,-0.530510204081633,42
1764359125.2634447,189001,1.0802,28.04,-10.363070732661456,-0.6405102040816324,42
1764359125.3656678,189101,1.085,28.81,-9.964758141953054,0.12948979591836718,42
1764359125.468848,189201,1.085,28.99,-9.964758141953054,0.3094897959183669,42
1764359125.571715,189301,1.085,27.97,-9.964758141953054,-0.7105102040816327,42
1764359125.6734679,189401,1.085,28.55,-9.964758141953054,-0.13051020408163083,42
1764359125.7758615,189501,1.085,28.81,-9.964758141953054,0.12948979591836718,40
1764359125.8780875,189601,1.085,28.59,-9.964758141953054,-0.09051020408163168,40
1764359125.9803152,189701,1.0802,28.95,-10.363070732661456,0.26948979591836775,41
1764359126.0826442,189801,1.085,28.84,-9.964758141953054,0.15948979591836832,41
1764359126.1856217,189901,1.085,28.4,-9.964758141953054,-0.28051020408163296,41
1764359126.2879176,190001,1.085,28.88,-9.964758141953054,0.19948979591836746,41
1764359126.3902264,190101,1.085,28.19,-9.964758141953054,-0.49051020408163026,41
1764359126.4931743,190201,1.0753,27.93,-10.76968150234297,-0.7505102040816318,41
1764359126.5960212,190301,1.085,28.44,-9.964758141953054,-0.24051020408163026,41
1764359126.6992173,190401,1.0802,28.04,-10.363070732661456,-0.6405102040816324,41
1764359126.8015926,190501,1.085,27.9,-9.964758141953054,-0.780510204081633,41
1764359126.9036498,190601,1.0802,28.29,-10.363070732661456,-0.3905102040816324,41
1764359127.006139,190701,1.0802,28.04,-10.363070732661456,-0.6405102040816324,41
1764359127.108804,190801,1.085,27.93,-9.964758141953054,-0.7505102040816318,41
1764359127.211694,190901,1.085,28.44,-9.964758141953054,-0.24051020408163026,41
1764359127.3148375,191001,1.0899,28.88,-9.55814737227154,0.19948979591836746,41
1764359127.418066,191101,1.085,28.62,-9.964758141953054,-0.06051020408163055,41
1764359127.5200245,191201,1.085,27.79,-9.964758141953054,-0.8905102040816324,41
1764359127.6217566,191301,1.0802,28.04,-10.363070732661456,-0.6405102040816324,41
1764359127.7240095,191401,1.085,28.51,-9.964758141953054,-0.17051020408162998,41
1764359127.8269792,191501,1.085,28.66,-9.964758141953054,-0.0205102040816314,41
1764359127.92961,191601,1.0899,28.99,-9.55814737227154,0.3094897959183669,41
1764359128.0324626,191701,1.0899,28.55,-9.55814737227154,-0.13051020408163083,41
1764359128.134991,191801,1.0802,28.15,-10.363070732661456,-0.530510204081633,41
1764359128.237133,191901,1.085,28.62,-9.964758141953054,-0.06051020408163055,41
1764359128.339269,192001,1.085,28.59,-9.964758141953054,-0.09051020408163168,41
1764359128.4415176,192101,1.085,28.19,-9.964758141953054,-0.49051020408163026,41
1764359128.5445383,192201,1.085,28.33,-9.964758141953054,-0.35051020408163325,41
1764359128.6475399,192301,1.085,28.55,-9.964758141953054,-0.13051020408163083,41
1764359128.750951,192401,1.085,28.55,-9.964758141953054,-0.13051020408163083,41
1764359128.8537962,192501,1.0899,29.03,-9.55814737227154,0.3494897959183696,41
1764359128.9558365,192601,1.085,27.64,-9.964758141953054,-1.040510204081631,41
1764359129.0582914,192701,1.0802,28.19,-10.363070732661456,-0.49051020408163026,41
1764359129.1605992,192801,1.085,28.73,-9.964758141953054,0.049489795918368884,41
1764359129.2631862,192901,1.0802,28.11,-10.363070732661456,-0.5705102040816321,41
1764359129.3680596,193001,1.085,28.4,-9.964758141953054,-0.28051020408163296,41
1764359129.4703486,193101,1.0899,28.88,-9.55814737227154,0.19948979591836746,41
1764359129.5724869,193201,1.0802,28.92,-10.363070732661456,0.23948979591837016,41
1764359129.6751864,193301,1.085,28.19,-9.964758141953054,-0.49051020408163026,41
1764359129.7778196,193401,1.085,28.7,-9.964758141953054,0.019489795918367747,41
1764359129.8811903,193501,1.085,28.77,-9.964758141953054,0.08948979591836803,42
1764359129.9841042,193601,1.085,27.97,-9.964758141953054,-0.7105102040816327,43
1764359130.086235,193701,1.0802,28.04,-10.363070732661456,-0.6405102040816324,43
1764359130.188322,193801,1.085,28.44,-9.964758141953054,-0.24051020408163026,44
1764359130.2908375,193901,1.085,28.26,-9.964758141953054,-0.42051020408163,45
1764359130.3937564,194001,1.0802,28.88,-10.363070732661456,0.19948979591836746,45
1764359130.4955523,194101,1.0802,27.36,-10.363070732661456,-1.320510204081632,45
1764359130.5993118,194201,1.0899,28.92,-9.55814737227154,0.23948979591837016,45
1764359130.7017095,194301,1.085,28.77,-9.964758141953054,0.08948979591836803,45
1764359130.8042977,194401,1.085,27.93,-9.964758141953054,-0.7505102040816318,45
1764359130.906442,194501,1.085,28.19,-9.964758141953054,-0.49051020408163026,46
1764359131.0089405,194601,1.085,28.44,-9.964758141953054,-0.24051020408163026,46
1764359131.1115887,194701,1.0753,28.37,-10.76968150234297,-0.31051020408163055,46
1764359131.215485,194801,1.0899,28.44,-9.55814737227154,-0.24051020408163026,46
1764359131.3176837,194901,1.0899,29.03,-9.55814737227154,0.3494897959183696,46
1764359131.4197412,195001,1.0899,28.44,-9.55814737227154,-0.24051020408163026,46
1764359131.5227425,195101,1.085,28.15,-9.964758141953054,-0.530510204081633,47
1764359131.625035,195201,1.0899,28.95,-9.55814737227154,0.26948979591836775,48
1764359131.7271435,195301,1.0899,28.73,-9.55814737227154,0.049489795918368884,48
1764359131.8301604,195401,1.0899,27.68,-9.55814737227154,-1.0005102040816318,49
1764359131.932949,195501,1.0899,28.22,-9.55814737227154,-0.4605102040816327,50
1764359132.035282,195601,1.0899,28.77,-9.55814737227154,0.08948979591836803,50
1764359132.1370745,195701,1.0899,28.62,-9.55814737227154,-0.06051020408163055,50
1764359132.2391646,195801,1.0899,28.26,-9.55814737227154,-0.42051020408163,50
1764359132.341706,195901,1.0899,28.22,-9.55814737227154,-0.4605102040816327,50
1764359132.444215,196001,1.0899,28.48,-9.55814737227154,-0.20051020408163112,50
1764359132.547002,196101,1.0948,28.84,-9.151536602590046,0.15948979591836832,50
1764359132.650023,196201,1.0899,28.59,-9.55814737227154,-0.09051020408163168,50
1764359132.7524915,196301,1.0899,28.99,-9.55814737227154,0.3094897959183669,50
1764359132.854807,196401,1.0899,28.22,-9.55814737227154,-0.4605102040816327,49
1764359132.9570358,196501,1.0899,28.81,-9.55814737227154,0.12948979591836718,49
1764359133.059315,196601,1.0899,28.81,-9.55814737227154,0.12948979591836718,49
1764359133.1614795,196701,1.0899,28.66,-9.55814737227154,-0.0205102040816314,49
1764359133.2643948,196801,1.0899,28.77,-9.55814737227154,0.08948979591836803,49
1764359133.3668096,196901,1.0899,28.88,-9.55814737227154,0.19948979591836746,49
1764359133.4690137,197001,1.085,28.0,-9.964758141953054,-0.6805102040816315,49
1764359133.5712152,197101,1.0948,28.88,-9.151536602590046,0.19948979591836746,49
1764359133.6738732,197201,1.0899,28.88,-9.55814737227154,0.19948979591836746,49
1764359133.7763765,197301,1.0899,29.03,-9.55814737227154,0.3494897959183696,49
1764359133.8805625,197401,1.0899,28.62,-9.55814737227154,-0.06051020408163055,50
1764359133.9827979,197501,1.085,27.79,-9.964758141953054,-0.8905102040816324,53
1764359134.0847692,197601,1.0899,29.03,-9.55814737227154,0.3494897959183696,57
1764359134.1871932,197701,1.0899,28.55,-9.55814737227154,-0.13051020408163083,61
1764359134.2892785,197801,1.0948,28.48,-9.151536602590046,-0.20051020408163112,65
1764359134.3913722,197901,1.0899,28.15,-9.55814737227154,-0.530510204081633,69
1764359134.4935598,198001,1.0899,27.82,-9.55814737227154,-0.8605102040816313,69
1764359134.5976174,198101,1.0899,28.73,-9.55814737227154,0.049489795918368884,69
1764359134.7001045,198201,1.0899,28.11,-9.55814737227154,-0.5705102040816321,70
1764359134.8023498,198301,1.0899,28.15,-9.55814737227154,-0.530510204081633,70
1764359134.9051614,198401,1.085,27.93,-9.964758141953054,-0.7505102040816318,70
1764359135.0080302,198501,1.0802,28.88,-10.363070732661456,0.19948979591836746,70
1764359135.1103752,198601,1.0899,28.51,-9.55814737227154,-0.17051020408162998,70
1764359135.2138376,198701,1.0899,27.68,-9.55814737227154,-1.0005102040816318,70
1764359135.3164155,198801,1.0899,28.81,-9.55814737227154,0.12948979591836718,70
1764359135.418418,198901,1.0899,28.95,-9.55814737227154,0.26948979591836775,70
1764359135.5212038,199001,1.0899,28.55,-9.55814737227154,-0.13051020408163083,70
1764359135.6239204,199101,1.0899,28.7,-9.55814737227154,0.019489795918367747,70
1764359135.7257874,199201,1.0899,28.44,-9.55814737227154,-0.24051020408163026,70
1764359135.8301322,199301,1.0899,28.99,-9.55814737227154,0.3094897959183669,70
1764359135.9323118,199401,1.0948,28.92,-9.151536602590046,0.23948979591837016,70
1764359136.0349908,199501,1.0899,28.7,-9.55814737227154,0.019489795918367747,69
1764359136.1375337,199601,1.0899,28.81,-9.55814737227154,0.12948979591836718,68
1764359136.2400615,199701,1.0948,29.03,-9.151536602590046,0.3494897959183696,66
1764359136.3421195,199801,1.0899,28.29,-9.55814737227154,-0.3905102040816324,65
1764359136.4469378,199901,1.0899,28.95,-9.55814737227154,0.26948979591836775,63
1764359136.5495365,200001,1.0899,28.95,-9.55814737227154,0.26948979591836775,62
1764359136.651505,200101,1.0899,28.95,-9.55814737227154,0.26948979591836775,62
1764359136.7538207,200201,1.0899,28.7,-9.55814737227154,0.019489795918367747,62
1764359136.8563287,200301,1.0899,28.7,-9.55814737227154,0.019489795918367747,62
1764359136.958481,200401,1.0948,28.84,-9.151536602590046,0.15948979591836832,62
1764359137.061955,200501,1.085,27.82,-9.964758141953054,-0.8605102040816313,62
1764359137.1645026,200601,1.0899,28.19,-9.55814737227154,-0.49051020408163026,62
1764359137.2665293,200701,1.0899,28.4,-9.55814737227154,-0.28051020408163296,63
1764359137.368489,200801,1.0899,28.99,-9.55814737227154,0.3094897959183669,63
1764359137.471008,200901,1.0899,28.95,-9.55814737227154,0.26948979591836775,63
1764359137.5733023,201001,1.0899,28.95,-9.55814737227154,0.26948979591836775,62
1764359137.6772726,201101,1.0899,28.11,-9.55814737227154,-0.5705102040816321,62
1764359137.7822223,201201,1.0899,28.48,-9.55814737227154,-0.20051020408163112,61
1764359137.885468,201301,1.0899,27.43,-9.55814737227154,-1.2505102040816318,61
1764359137.987848,201401,1.085,27.82,-9.964758141953054,-0.8605102040816313,61
1764359138.0903466,201501,1.0899,27.79,-9.55814737227154,-0.8905102040816324,61
1764359138.1933916,201601,1.0899,28.4,-9.55814737227154,-0.28051020408163296,61
1764359138.2974017,201701,1.0948,27.97,-9.151536602590046,-0.7105102040816327,60
1764359138.3994038,201801,1.0948,28.92,-9.151536602590046,0.23948979591837016,58
1764359138.5015922,201901,1.0899,27.75,-9.55814737227154,-0.9305102040816315,57
1764359138.603835,202001,1.0899,28.11,-9.55814737227154,-0.5705102040816321,55
1764359138.7060237,202101,1.0899,28.44,-9.55814737227154,-0.24051020408163026,54
1764359138.8082955,202201,1.0899,28.37,-9.55814737227154,-0.31051020408163055,54
1764359138.9136014,202301,1.0899,27.93,-9.55814737227154,-0.7505102040816318,53
1764359139.0160043,202401,1.0997,29.03,-8.744925832908551,0.3494897959183696,53
1764359139.1182215,202501,1.0899,28.22,-9.55814737227154,-0.4605102040816327,54
1764359139.2202978,202601,1.0899,28.55,-9.55814737227154,-0.13051020408163083,55
1764359139.322954,202701,1.0948,27.64,-9.151536602590046,-1.040510204081631,55
1764359139.425904,202801,1.0948,28.04,-9.151536602590046,-0.6405102040816324,56
1764359139.528603,202901,1.0899,28.77,-9.55814737227154,0.08948979591836803,57
1764359139.631478,203001,1.0899,28.22,-9.55814737227154,-0.4605102040816327,57
1764359139.733731,203101,1.0899,28.4,-9.55814737227154,-0.28051020408163296,57
1764359139.8361943,203201,1.0899,28.08,-9.55814737227154,-0.6005102040816332,57
1764359139.939251,203301,1.085,27.82,-9.964758141953054,-0.8605102040816313,57
1764359140.0418956,203401,1.0899,28.51,-9.55814737227154,-0.17051020408162998,57
1764359140.145109,203501,1.085,27.9,-9.964758141953054,-0.780510204081633,57
1764359140.2475863,203601,1.0948,28.81,-9.151536602590046,0.12948979591836718,57
1764359140.3524117,203701,1.0899,28.59,-9.55814737227154,-0.09051020408163168,56
1764359140.455217,203801,1.0899,28.77,-9.55814737227154,0.08948979591836803,56
1764359140.5577745,203901,1.0899,28.48,-9.55814737227154,-0.20051020408163112,56
1764359140.6608174,204001,1.0948,28.81,-9.151536602590046,0.12948979591836718,56
1764359140.762989,204101,1.0899,28.44,-9.55814737227154,-0.24051020408163026,55
1764359140.8648474,204201,1.085,28.0,-9.964758141953054,-0.6805102040816315,55
1764359140.9682047,204301,1.0899,29.03,-9.55814737227154,0.3494897959183696,55
1764359141.0707982,204401,1.0802,28.19,-10.363070732661456,-0.49051020408163026,55
1764359141.173044,204501,1.0899,27.46,-9.55814737227154,-1.2205102040816307,55
1764359141.2762809,204601,1.0899,28.26,-9.55814737227154,-0.42051020408163,55
1764359141.3785584,204701,1.0899,27.57,-9.55814737227154,-1.1105102040816313,55
1764359141.4808972,204801,1.0899,28.73,-9.55814737227154,0.049489795918368884,55
1764359141.583613,204901,1.0899,28.19,-9.55814737227154,-0.49051020408163026,55
1764359141.6865137,205001,1.0899,28.48,-9.55814737227154,-0.20051020408163112,55
1764359141.7890477,205101,1.0899,28.7,-9.55814737227154,0.019489795918367747,55
1764359141.8925366,205201,1.0899,28.33,-9.55814737227154,-0.35051020408163325,55
1764359141.9958746,205301,1.085,27.97,-9.964758141953054,-0.7105102040816327,55
1764359142.098186,205401,1.0899,28.88,-9.55814737227154,0.19948979591836746,55
1764359142.2004678,205501,1.0802,28.04,-10.363070732661456,-0.6405102040816324,55
1764359142.3026094,205601,1.0899,27.54,-9.55814737227154,-1.1405102040816324,55
1764359142.4047942,205701,1.085,27.82,-9.964758141953054,-0.8605102040816313,55
1764359142.5092165,205801,1.0899,28.88,-9.55814737227154,0.19948979591836746,55
1764359142.6117253,205901,1.0899,28.73,-9.55814737227154,0.049489795918368884,55
1764359142.7136414,206001,1.0899,29.03,-9.55814737227154,0.3494897959183696,55
1764359142.8156247,206101,1.0899,28.95,-9.55814737227154,0.26948979591836775,54
1764359142.917982,206201,1.0899,28.62,-9.55814737227154,-0.06051020408163055,53
1764359143.0204208,206301,1.0899,28.73,-9.55814737227154,0.049489795918368884,52
1764359143.1233685,206401,1.0899,28.95,-9.55814737227154,0.26948979591836775,52
1764359143.2271318,206501,1.0899,28.37,-9.55814737227154,-0.31051020408163055,52
1764359143.3288903,206601,1.0899,28.22,-9.55814737227154,-0.4605102040816327,52
1764359143.4312284,206701,1.0899,28.95,-9.55814737227154,0.26948979591836775,52
1764359143.5335796,206801,1.0899,27.61,-9.55814737227154,-1.070510204081632,52
1764359143.635981,206901,1.0899,28.29,-9.55814737227154,-0.3905102040816324,52
1764359143.7384593,207001,1.0899,28.99,-9.55814737227154,0.3094897959183669,51
1764359143.8430262,207101,1.0802,28.11,-10.363070732661456,-0.5705102040816321,50
1764359143.9449136,207201,1.0899,28.7,-9.55814737227154,0.019489795918367747,49
1764359144.0471587,207301,1.0899,28.0,-9.55814737227154,-0.6805102040816315,49
1764359144.1493573,207401,1.0899,28.73,-9.55814737227154,0.049489795918368884,48
1764359144.2520895,207501,1.0802,28.4,-10.363070732661456,-0.28051020408163296,48
1764359144.3540533,207601,1.0899,28.73,-9.55814737227154,0.049489795918368884,48
1764359144.458508,207701,1.0948,28.95,-9.151536602590046,0.26948979591836775,49
1764359144.561195,207801,1.0899,28.7,-9.55814737227154,0.019489795918367747,49
1764359144.663738,207901,1.0899,28.48,-9.55814737227154,-0.20051020408163112,49
1764359144.7660184,208001,1.0899,28.29,-9.55814737227154,-0.3905102040816324,49
1764359144.868378,208101,1.0899,28.95,-9.55814737227154,0.26948979591836775,49
1764359144.9707,208201,1.0899,28.15,-9.55814737227154,-0.530510204081633,49
1764359145.0755615,208301,1.085,27.5,-9.964758141953054,-1.1805102040816315,49
1764359145.177408,208401,1.0899,28.7,-9.55814737227154,0.019489795918367747,49
1764359145.279406,208501,1.0899,28.66,-9.55814737227154,-0.0205102040816314,49
1764359145.382002,208601,1.0899,28.26,-9.55814737227154,-0.42051020408163,49
1764359145.4844413,208701,1.0899,28.81,-9.55814737227154,0.12948979591836718,49
1764359145.586451,208801,1.0948,28.81,-9.151536602590046,0.12948979591836718,49
1764359145.6892276,208901,1.0899,27.64,-9.55814737227154,-1.040510204081631,49
1764359145.792338,209001,1.0948,27.68,-9.151536602590046,-1.0005102040816318,49
1764359145.894803,209101,1.0899,28.84,-9.55814737227154,0.15948979591836832,49
1764359145.9968474,209201,1.0899,27.93,-9.55814737227154,-0.7505102040816318,49
1764359146.0994005,209301,1.0899,28.62,-9.55814737227154,-0.06051020408163055,49
1764359146.2017384,209401,1.0899,28.26,-9.55814737227154,-0.42051020408163,49
1764359146.304396,209501,1.0899,28.4,-9.55814737227154,-0.28051020408163296,49
1764359146.4070578,209601,1.0899,28.95,-9.55814737227154,0.26948979591836775,49
1764359146.5095713,209701,1.0899,28.55,-9.55814737227154,-0.13051020408163083,49
1764359146.612044,209801,1.0899,28.51,-9.55814737227154,-0.17051020408162998,49
1764359146.7142282,209901,1.085,27.39,-9.964758141953054,-1.290510204081631,49
1764359146.816526,210001,1.0899,28.59,-9.55814737227154,-0.09051020408163168,49
1764359146.9196184,210101,1.0899,28.84,-9.55814737227154,0.15948979591836832,49
1764359147.0223489,210201,1.0899,28.33,-9.55814737227154,-0.35051020408163325,49
1764359147.124767,210301,1.0948,28.92,-9.151536602590046,0.23948979591837016,49
1764359147.227097,210401,1.0899,28.48,-9.55814737227154,-0.20051020408163112,49
1764359147.329189,210501,1.0899,28.33,-9.55814737227154,-0.35051020408163325,49
1764359147.4313836,210601,1.0899,28.66,-9.55814737227154,-0.0205102040816314,49
1764359147.5337203,210701,1.0802,27.97,-10.363070732661456,-0.7105102040816327,49
1764359147.6358228,210801,1.0899,28.26,-9.55814737227154,-0.42051020408163,49
1764359147.7379465,210901,1.0899,28.51,-9.55814737227154,-0.17051020408162998,49
1764359147.8407583,211001,1.0948,28.84,-9.151536602590046,0.15948979591836832,49
1764359147.9432049,211101,1.0899,28.51,-9.55814737227154,-0.17051020408162998,49
1764359148.0454972,211201,1.0899,28.22,-9.55814737227154,-0.4605102040816327,49
1764359148.1474216,211301,1.0899,28.04,-9.55814737227154,-0.6405102040816324,49
1764359148.2493722,211401,1.0899,28.92,-9.55814737227154,0.23948979591837016,49
1764359148.3512928,211501,1.085,27.64,-9.964758141953054,-1.040510204081631,49
1764359148.453697,211601,1.0899,28.92,-9.55814737227154,0.23948979591837016,49
1764359148.5560863,211701,1.085,28.33,-9.964758141953054,-0.35051020408163325,49
1764359148.658256,211801,1.085,28.66,-9.964758141953054,-0.0205102040816314,49
1764359148.760088,211901,1.0899,28.59,-9.55814737227154,-0.09051020408163168,49
1764359148.8621662,212001,1.0899,28.19,-9.55814737227154,-0.49051020408163026,49
1764359148.9639213,212101,1.0899,28.66,-9.55814737227154,-0.0205102040816314,49
1764359149.066164,212201,1.0899,28.55,-9.55814737227154,-0.13051020408163083,49
1764359149.1680572,212301,1.0948,29.03,-9.151536602590046,0.3494897959183696,49
1764359149.2710953,212401,1.0899,27.54,-9.55814737227154,-1.1405102040816324,49
1764359149.3730037,212501,1.0899,28.99,-9.55814737227154,0.3094897959183669,49
1764359149.4752026,212601,1.085,27.75,-9.964758141953054,-0.9305102040816315,49
1764359149.5773437,212701,1.0899,29.03,-9.55814737227154,0.3494897959183696,49
1764359149.6791074,212801,1.0948,28.92,-9.151536602590046,0.23948979591837016,49
1764359149.781564,212901,1.0899,28.81,-9.55814737227154,0.12948979591836718,49
1764359149.8833206,213001,1.0899,28.55,-9.55814737227154,-0.13051020408163083,49
1764359149.9853513,213101,1.0899,28.7,-9.55814737227154,0.019489795918367747,49
1764359150.0895417,213201,1.0899,29.03,-9.55814737227154,0.3494897959183696,49
1764359150.1917014,213301,1.0899,28.26,-9.55814737227154,-0.42051020408163,49
1764359150.2940984,213401,1.0899,28.95,-9.55814737227154,0.26948979591836775,49
1764359150.398682,213501,1.0899,28.08,-9.55814737227154,-0.6005102040816332,49
1764359150.5017295,213601,1.0899,28.44,-9.55814737227154,-0.24051020408163026,49
1764359150.605868,213701,1.0899,28.88,-9.55814737227154,0.19948979591836746,49
1764359150.7083473,213801,1.085,28.04,-9.964758141953054,-0.6405102040816324,49
1764359150.810376,213901,1.0899,28.84,-9.55814737227154,0.15948979591836832,49
1764359150.9134295,214001,1.0899,28.77,-9.55814737227154,0.08948979591836803,49
1764359151.015541,214101,1.0899,28.59,-9.55814737227154,-0.09051020408163168,49
1764359151.1187863,214201,1.0948,28.92,-9.151536602590046,0.23948979591837016,48
1764359151.2215695,214301,1.0899,28.22,-9.55814737227154,-0.4605102040816327,46
1764359151.3236063,214401,1.0899,28.92,-9.55814737227154,0.23948979591837016,46
1764359151.4269793,214501,1.0899,28.95,-9.55814737227154,0.26948979591836775,46
