timestamp,ecg_raw,ecg_voltage,temperature,ecg_change_percent,temp_change_celsius,bpm
1764361306.6767478,336,1.640625,36.57206190135244,-2.8171458321281913,-0.17932387307858733,59
1764361306.778057,330,1.611328125,36.89744142906644,-4.5525539422687595,0.14605565463541126,59
1764361306.879263,333,1.6259765625,36.58342777379099,-3.6848498871984754,-0.1679580006400414,59
1764361306.981339,331,1.6162109375,36.89704996266586,-4.263319257245332,0.14566418823483218,59
1764361307.0832298,335,1.6357421875,36.59276624768161,-3.1063805171516194,-0.15861952674941904,59
1764361307.1848652,325,1.5869140625,36.87964088450039,-5.9987273673859,0.12825511006936097,59
1764361307.2859645,328,1.6015625,36.76248587376872,-5.131023312315616,0.011100099337689073,59
1764361307.3870103,321,1.5673828125,36.700120989463706,-7.155666107479611,-0.051264784967322896,59
1764361307.4882796,339,1.6552734375,36.574762539136735,-1.9494417770579073,-0.17662323529429358,59
1764361307.5894835,335,1.6357421875,36.74112403952461,-3.1063805171516194,-0.010261734906421793,59
1764361307.6909018,336,1.640625,36.769955827125685,-2.8171458321281913,0.01857005269465617,59
1764361307.7923763,338,1.650390625,36.85117508406194,-2.2386764620813353,0.09978930963091415,59
1764361307.8938925,328,1.6015625,36.910130898240475,-5.131023312315616,0.15874512380944594,59
1764361307.9949362,327,1.5966796875,36.95364825512576,-5.420257997339043,0.20226248069473485,59
1764361308.0960035,321,1.5673828125,36.738114050604146,-7.155666107479611,-0.013271723826882464,59
1764361308.1973403,327,1.5966796875,36.944803768374456,-5.420257997339043,0.1934179939434273,59
1764361308.298568,331,1.6162109375,36.63326343362041,-4.263319257245332,-0.118122340810622,59
1764361308.4003658,325,1.5869140625,36.682352969507335,-5.9987273673859,-0.0690328049236939,59
1764361308.501312,333,1.6259765625,36.61545454886333,-3.6848498871984754,-0.13593122556769544,59
1764361308.602675,325,1.5869140625,36.73063894643302,-5.9987273673859,-0.02074682799801053,59
1764361308.7037787,332,1.62109375,36.79871791290839,-3.974084572221903,0.0473321384773584,59
1764361308.8051853,324,1.58203125,36.94552190686122,-6.287962052409328,0.194136132430188,59
1764361308.906799,336,1.640625,36.83169766567715,-2.8171458321281913,0.0803118912461187,59
1764361309.0080116,335,1.6357421875,36.659441096847516,-3.1063805171516194,-0.09194467758351266,59
1764361309.1091373,327,1.5966796875,36.721173153835736,-5.420257997339043,-0.03021262059529306,59
1764361309.2105596,325,1.5869140625,36.63366426131589,-5.9987273673859,-0.11772151311513568,59
1764361309.311643,320,1.5625,36.79363024825458,-7.44490079250304,0.04224447382355123,59
1764361309.4133456,333,1.6259765625,36.90509893530107,-3.6848498871984754,0.1537131608700406,59
1764361309.5148916,325,1.5869140625,36.68689586289615,-5.9987273673859,-0.06448991153487782,59
1764361309.6180885,327,1.5966796875,36.69416013285708,-5.420257997339043,-0.05722564157395027,59
1764361309.7196105,332,1.62109375,36.63507387244461,-3.974084572221903,-0.11631190198642116,59
1764361309.8206747,336,1.640625,36.89317433102803,-2.8171458321281913,0.14178855659699963,58
1764361309.9218843,331,1.6162109375,36.93643544679779,-4.263319257245332,0.18504967236675895,58
1764361310.0229406,321,1.5673828125,36.62044842043277,-7.155666107479611,-0.1309373539982559,58
1764361310.124248,336,1.640625,36.737116819794295,-2.8171458321281913,-0.01426895463673361,58
1764361310.2255735,324,1.58203125,36.85455420610157,-6.287962052409328,0.10316843167053946,58
1764361310.327118,325,1.5869140625,36.682242711618144,-5.9987273673859,-0.06914306281288418,58
1764361310.4281886,322,1.572265625,36.945086047086306,-6.866431422456183,0.19370027265527767,58
1764361310.5293615,321,1.5673828125,36.73971515938565,-7.155666107479611,-0.011670615045375143,58
1764361310.630936,337,1.6455078125,36.89751193077513,-2.5279111471047635,0.14612615634410275,58
1764361310.7329698,330,1.611328125,36.9053054311446,-4.5525539422687595,0.153919656713569,58
1764361310.834589,338,1.650390625,36.70092554979638,-2.2386764620813353,-0.05046022463464794,58
1764361310.9360988,340,1.66015625,36.63810408220244,-1.6602070920344794,-0.11328169222858975,58
1764361311.0372026,335,1.6357421875,36.7186019885742,-3.1063805171516194,-0.03278378585682873,58
1764361311.1385396,331,1.6162109375,36.75714174416883,-4.263319257245332,0.005755969737798239,58
1764361311.2403681,339,1.6552734375,36.92920148166208,-1.9494417770579073,0.1778157072310549,58
1764361311.3417425,331,1.6162109375,36.74149172379711,-4.263319257245332,-0.009894050633917573,58
1764361311.4433308,328,1.6015625,36.647892693406874,-5.131023312315616,-0.10349308102415478,58
1764361311.5447013,333,1.6259765625,36.74434962256489,-3.6848498871984754,-0.007036151866138596,58
1764361311.646166,334,1.630859375,36.71914487186789,-3.395615202175047,-0.03224090256313872,58
1764361311.750547,321,1.5673828125,36.807417180693506,-7.155666107479611,0.056031406262476935,58
1764361311.8521428,321,1.5673828125,36.66634546398869,-7.155666107479611,-0.08504031044233784,58
1764361311.9536903,338,1.650390625,36.696955930345,-2.2386764620813353,-0.054429844086030243,59
1764361312.054869,326,1.591796875,36.593517574551086,-5.709492682362471,-0.1578681998799425,59
1764361312.156147,340,1.66015625,36.79038182286496,-1.6602070920344794,0.038996048433929786,59
1764361312.257684,325,1.5869140625,36.82978959165964,-5.9987273673859,0.07840381722861167,60
1764361312.359051,323,1.5771484375,36.93007690733499,-6.577196737432756,0.178691132903964,60
1764361312.4603288,331,1.6162109375,36.74796710497037,-4.263319257245332,-0.0034186694606574974,60
1764361312.5621574,329,1.6064453125,36.76400364926754,-4.841788627292187,0.012617874836514886,60
1764361312.664389,337,1.6455078125,36.928513643173034,-2.5279111471047635,0.17712786874200503,60
1764361312.7662787,334,1.630859375,36.94942101717705,-3.395615202175047,0.19803524274602324,60
1764361312.867486,333,1.6259765625,36.58583841203621,-3.6848498871984754,-0.16554736239481826,60
1764361312.9695616,321,1.5673828125,36.75615918846043,-7.155666107479611,0.004773414029401124,59
1764361313.071115,330,1.611328125,36.764369021349104,-4.5525539422687595,0.012983246918075508,58
1764361313.1729882,324,1.58203125,36.76275982506931,-6.287962052409328,0.011374050638281119,58
1764361313.2740328,337,1.6455078125,36.72829678353624,-2.5279111471047635,-0.02308899089479155,57
1764361313.375364,338,1.650390625,36.56099422663701,-2.2386764620813353,-0.19039154779402168,57
1764361313.47706,338,1.650390625,36.87028306693911,-2.2386764620813353,0.11889729250808045,57
1764361313.5800412,325,1.5869140625,36.567708602563215,-5.9987273673859,-0.18367717186781363,57
1764361313.6816676,321,1.5673828125,36.816835075211124,-7.155666107479611,0.06544930078009514,57
1764361313.783027,330,1.611328125,36.886131197805476,-4.5525539422687595,0.13474542337444717,57
1764361313.8839016,324,1.58203125,36.627470146641606,-6.287962052409328,-0.12391562778942244,57
1764361313.9849133,323,1.5771484375,36.94528242760223,-6.577196737432756,0.1938966531712012,57
1764361314.0862694,324,1.58203125,36.80841923151949,-6.287962052409328,0.057033457088458306,57
1764361314.187278,331,1.6162109375,36.680410906431845,-4.263319257245332,-0.07097486799918329,57
1764361314.2886808,329,1.6064453125,36.86851781476426,-4.841788627292187,0.11713204033323166,57
1764361314.3898985,331,1.6162109375,36.89370977585995,-4.263319257245332,0.14232400142892487,57
1764361314.4914556,328,1.6015625,36.857936142064084,-5.131023312315616,0.10655036763305503,57
1764361314.5927522,336,1.640625,36.721200211140435,-2.8171458321281913,-0.030185563290594075,57
1764361314.6941462,326,1.591796875,36.71706392644169,-5.709492682362471,-0.03432184798933946,57
1764361314.7963164,337,1.6455078125,36.86589819624186,-2.5279111471047635,0.11451242181082932,57
1764361314.8975797,335,1.6357421875,36.64443031516423,-3.1063805171516194,-0.10695545926679983,57
1764361314.9988036,338,1.650390625,36.794357956203804,-2.2386764620813353,0.042972181772775286,57
1764361315.1000876,325,1.5869140625,36.753406922459874,-5.9987273673859,0.002021148028845232,57
1764361315.201484,326,1.591796875,36.804257628915934,-5.709492682362471,0.05287185448490561,57
1764361315.3028533,334,1.630859375,36.93242627607647,-3.395615202175047,0.18104050164544105,57
1764361315.4040384,321,1.5673828125,36.58179157954248,-7.155666107479611,-0.1695941948885462,57
1764361315.505749,336,1.640625,36.86835905120207,-2.8171458321281913,0.11697327677104141,57
1764361315.6072838,331,1.6162109375,36.63393858940061,-4.263319257245332,-0.11744718503042151,57
1764361315.708526,320,1.5625,36.67031753195309,-7.44490079250304,-0.08106824247794009,57
1764361315.8099792,325,1.5869140625,36.81348435817741,-5.9987273673859,0.06209858374638344,57
1764361315.91198,339,1.6552734375,36.73156140842414,-1.9494417770579073,-0.019824366006886862,57
1764361316.013699,324,1.58203125,36.6112557118295,-6.287962052409328,-0.1401300626015285,57
1764361316.1149533,333,1.6259765625,36.75825312658044,-3.6848498871984754,0.006867352149413364,57
1764361316.2160854,337,1.6455078125,36.71528697291914,-2.5279111471047635,-0.0360988015118906,55
1764361316.3174634,335,1.6357421875,36.72487379985203,-3.1063805171516194,-0.026511974579001674,54
1764361316.4189603,326,1.591796875,36.76387290145341,-5.709492682362471,0.012487127022382083,53
1764361316.5200884,336,1.640625,36.647723565948034,-2.8171458321281913,-0.10366220848299434,52
1764361316.6210394,321,1.5673828125,36.80621450432034,-7.155666107479611,0.05482872988930865,52
1764361316.7226985,330,1.611328125,36.60504956767956,-4.5525539422687595,-0.14633620675147085,53
1764361316.8245304,333,1.6259765625,36.64190932663255,-3.6848498871984754,-0.1094764477984782,54
1764361316.9257696,329,1.6064453125,36.66293977780422,-4.841788627292187,-0.08844599662680963,55
1764361317.0275702,338,1.650390625,36.70776718919789,-2.2386764620813353,-0.04361858523314055,55
1764361317.1292,323,1.5771484375,36.5698568913255,-6.577196737432756,-0.1815288831055284,54
1764361317.2306228,332,1.62109375,36.79962809364202,-3.974084572221903,0.04824231921099198,53
1764361317.332345,330,1.611328125,36.93295610689489,-4.5525539422687595,0.18157033246386334,52
1764361317.4337652,323,1.5771484375,36.77319692796891,-6.577196737432756,0.021811153537882433,51
1764361317.5351696,327,1.5966796875,36.84697749155856,-5.420257997339043,0.09559171712753312,51
1764361317.6367774,320,1.5625,36.87337542751981,-7.44490079250304,0.12198965308878229,51
1764361317.7381604,323,1.5771484375,36.85843157472468,-6.577196737432756,0.10704580029365474,52
1764361317.8394296,321,1.5673828125,36.90671415841042,-7.155666107479611,0.15532838397939486,52
1764361317.941043,330,1.611328125,36.5988032462531,-4.5525539422687595,-0.1525825281779305,52
1764361318.042311,322,1.572265625,36.70711963507091,-6.866431422456183,-0.04426613936011847,52
1764361318.144015,331,1.6162109375,36.88554852720844,-4.263319257245332,0.13416275277741363,52
1764361318.2459133,321,1.5673828125,36.77587531363658,-7.155666107479611,0.024489539205553967,52
1764361318.347248,337,1.6455078125,36.76950645859439,-2.5279111471047635,0.018120684163363876,52
1764361318.4482079,331,1.6162109375,36.745561978298454,-4.263319257245332,-0.005823796132574444,52
1764361318.5616615,324,1.58203125,36.560184099054915,-6.287962052409328,-0.19120167537611366,52
1764361318.6632428,340,1.66015625,36.5681755204067,-1.6602070920344794,-0.18321025402433122,51
1764361318.7647989,333,1.6259765625,36.611436329317286,-3.6848498871984754,-0.13994944511374285,51
1764361318.8663125,327,1.5966796875,36.83895054780052,-5.420257997339043,0.08756477336949331,50
1764361318.9678226,335,1.6357421875,36.67777170324755,-3.1063805171516194,-0.07361407118347785,51
1764361319.069913,321,1.5673828125,36.83081340649425,-7.155666107479611,0.07942763206322212,50
1764361319.1714804,325,1.5869140625,36.59352142275872,-5.9987273673859,-0.15786435167230906,49
1764361319.2729814,338,1.650390625,36.92942709686268,-2.2386764620813353,0.17804132243165327,49
1764361319.3753982,327,1.5966796875,36.81549835618038,-5.420257997339043,0.06411258174934886,49
1764361319.477668,327,1.5966796875,36.63780943196337,-5.420257997339043,-0.11357634246765969,49
1764361319.5787957,332,1.62109375,36.72261653221815,-3.974084572221903,-0.028769242212881352,50
1764361319.6800072,329,1.6064453125,36.89758023464244,-4.841788627292187,0.14619446021141158,50
1764361319.7813642,329,1.6064453125,36.785321762981866,-4.841788627292187,0.03393598855083724,51
1764361319.882951,335,1.6357421875,36.75251474480272,-3.1063805171516194,0.0011289703716883537,51
1764361319.984135,325,1.5869140625,36.8378195647724,-5.9987273673859,0.0864337903413741,52
1764361320.086904,337,1.6455078125,36.91608144947712,-2.5279111471047635,0.16469567504609017,53
1764361320.1887412,323,1.5771484375,36.6846975983313,-6.577196737432756,-0.06668817609973132,54
1764361320.290072,325,1.5869140625,36.8553378538661,-5.9987273673859,0.1039520794350679,54
1764361320.392403,323,1.5771484375,36.74751429843942,-6.577196737432756,-0.0038714759916089747,54
1764361320.494354,321,1.5673828125,36.92804321754945,-7.155666107479611,0.17665744311842246,53
1764361320.5957778,334,1.630859375,36.7869857082174,-3.395615202175047,0.03559993378637216,53
1764361320.6968558,331,1.6162109375,36.92533749307554,-4.263319257245332,0.17395171864450987,53
1764361320.7985897,338,1.650390625,36.56328872693009,-2.2386764620813353,-0.18809704750093914,53
1764361320.900484,338,1.650390625,36.560533097301416,-2.2386764620813353,-0.1908526771296124,53
1764361321.0019321,325,1.5869140625,36.84264491952626,-5.9987273673859,0.09125914509522914,54
1764361321.103268,337,1.6455078125,36.76303803391893,-2.5279111471047635,0.011652259487902938,54
1764361321.2050717,334,1.630859375,36.84026930581136,-3.395615202175047,0.08888353138033267,55
1764361321.3064733,326,1.591796875,36.693013631686746,-5.709492682362471,-0.058372142744282485,56
1764361321.4081364,339,1.6552734375,36.77667989364446,-1.9494417770579073,0.025294119213434385,57
1764361321.5102055,329,1.6064453125,36.861719334831726,-4.841788627292187,0.1103335604006972,57
1764361321.611795,335,1.6357421875,36.73574186906179,-3.1063805171516194,-0.015643905369238098,57
1764361321.7131765,337,1.6455078125,36.95295498604907,-2.5279111471047635,0.2015692116180432,58
1764361321.8143637,325,1.5869140625,36.77289609090862,-5.9987273673859,0.021510316477588276,58
1764361321.9158268,325,1.5869140625,36.81994993050262,-5.9987273673859,0.06856415607158795,59
1764361322.0172012,330,1.611328125,36.684922665892735,-4.5525539422687595,-0.06646310853829362,59
1764361322.1187217,331,1.6162109375,36.65047276086206,-4.263319257245332,-0.1009130135689702,59
1764361322.2202835,340,1.66015625,36.56069526658207,-1.6602070920344794,-0.1906905078489558,60
1764361322.3219411,331,1.6162109375,36.67595006857029,-4.263319257245332,-0.07543570586074111,60
1764361322.4235153,332,1.62109375,36.77406324995411,-3.974084572221903,0.02267747552308208,61
1764361322.5271776,333,1.6259765625,36.948958711828396,-3.6848498871984754,0.1975729373973678,62
1764361322.629016,329,1.6064453125,36.944447562648804,-4.841788627292187,0.19306178821777564,63
1764361322.7306592,335,1.6357421875,36.580113742609704,-3.1063805171516194,-0.17127203182132433,63
1764361322.831902,331,1.6162109375,36.615710732843056,-4.263319257245332,-0.13567504158797306,63
1764361322.9335241,338,1.650390625,36.585703797854876,-2.2386764620813353,-0.16568197657615258,62
1764361323.0347304,330,1.611328125,36.67603991539177,-4.5525539422687595,-0.07534585903925972,62
1764361323.1364348,335,1.6357421875,36.734252281729404,-3.1063805171516194,-0.017133492701624675,62
1764361323.237817,329,1.6064453125,36.8143856414477,-4.841788627292187,0.06299986701667137,63
1764361323.339413,328,1.6015625,36.71347371653022,-5.131023312315616,-0.037912057900811647,64
1764361323.4418666,332,1.62109375,36.68389649038317,-3.974084572221903,-0.06748928404785914,65
1764361323.5432708,334,1.630859375,36.56614571678137,-3.395615202175047,-0.18524005764965779,67
1764361323.6446044,321,1.5673828125,36.863177612784725,-7.155666107479611,0.111791838353696,68
1764361323.745581,322,1.572265625,36.81273996941788,-6.866431422456183,0.06135419498685479,70
1764361323.8468995,332,1.62109375,36.76195593283295,-3.974084572221903,0.010570158401918661,70
1764361323.9482493,337,1.6455078125,36.74371346173986,-2.5279111471047635,-0.007672312691170191,70
1764361324.0494604,327,1.5966796875,36.81580151438665,-5.420257997339043,0.06441573995562067,70
1764361324.1512003,320,1.5625,36.80351953938725,-7.44490079250304,0.05213376495622413,70
1764361324.2525375,329,1.6064453125,36.812768928324026,-4.841788627292187,0.0613831538929972,69
1764361324.3539035,335,1.6357421875,36.91985473058069,-3.1063805171516194,0.16846895614965973,68
1764361324.4557626,327,1.5966796875,36.83716162004949,-5.420257997339043,0.08577584561846407,68
1764361324.5582852,331,1.6162109375,36.76068617969562,-4.263319257245332,0.009300405264589529,68
1764361324.659481,339,1.6552734375,36.60263389951302,-1.9494417770579073,-0.14875187491800546,68
1764361324.7605677,337,1.6455078125,36.94240076084319,-2.5279111471047635,0.19101498641216352,68
1764361324.8621516,337,1.6455078125,36.90209567328891,-2.5279111471047635,0.15070989885788322,68
1764361324.9635973,329,1.6064453125,36.778667404667125,-4.841788627292187,0.027281630236096532,68
1764361325.064672,321,1.5673828125,36.787337471367145,-7.155666107479611,0.03595169693611666,69
1764361325.1662836,335,1.6357421875,36.62251076344815,-3.1063805171516194,-0.12887501098288112,70
1764361325.2677336,339,1.6552734375,36.802735108262034,-1.9494417770579073,0.051349333831005595,70
1764361325.3691661,329,1.6064453125,36.66467381884676,-4.841788627292187,-0.08671195558427058,71
1764361325.4703863,338,1.650390625,36.673508416724665,-2.2386764620813353,-0.07787735770636317,71
1764361325.5722423,335,1.6357421875,36.817430427807224,-3.1063805171516194,0.06604465337619558,71
1764361325.6742477,326,1.591796875,36.63320014496318,-5.709492682362471,-0.11818562946784539,71
1764361325.7754853,329,1.6064453125,36.68923027513666,-4.841788627292187,-0.06215549929437003,71
1764361325.8768744,332,1.62109375,36.68440406386068,-3.974084572221903,-0.06698171057034585,71
1764361325.9780183,327,1.5966796875,36.85133588437571,-5.420257997339043,0.0999501099446789,72
1764361326.0796082,323,1.5771484375,36.74187542511327,-6.577196737432756,-0.009510349317757516,72
1764361326.1812603,339,1.6552734375,36.80081699117809,-1.9494417770579073,0.049431216747059636,73
1764361326.2827244,324,1.58203125,36.74935493986019,-6.287962052409328,-0.0020308345708386355,73
1764361326.38428,330,1.611328125,36.66926241619885,-4.5525539422687595,-0.08212335823218098,73
1764361326.4854398,327,1.5966796875,36.73171609564986,-5.420257997339043,-0.01966967878117032,73
1764361326.586911,334,1.630859375,36.653362680343164,-3.395615202175047,-0.09802309408786414,73
1764361326.6884959,323,1.5771484375,36.692629128218684,-6.577196737432756,-0.058756646212344776,73
1764361326.790413,325,1.5869140625,36.942653453562876,-5.9987273673859,0.1912676791318475,73
1764361326.8917317,337,1.6455078125,36.59378509067134,-2.5279111471047635,-0.15760068375968928,73
1764361326.9928565,327,1.5966796875,36.94326987933201,-5.420257997339043,0.1918841049009785,73
1764361327.0938323,330,1.611328125,36.88153753545522,-4.5525539422687595,0.13015176102419446,75
1764361327.195396,330,1.611328125,36.95261597429703,-4.5525539422687595,0.20123019986600355,76
1764361327.2965043,321,1.5673828125,36.90828986531976,-7.155666107479611,0.15690409088873025,78
1764361327.3978972,339,1.6552734375,36.926171313840264,-1.9494417770579073,0.17478553940923547,80
1764361327.4991937,339,1.6552734375,36.85286881085386,-1.9494417770579073,0.10148303642283452,81
1764361327.6012933,328,1.6015625,36.849330818167736,-5.131023312315616,0.09794504373670776,80
1764361327.703135,339,1.6552734375,36.676319469176576,-1.9494417770579073,-0.07506630525445246,79
1764361327.8049345,331,1.6162109375,36.83845063552056,-4.263319257245332,0.08706486108953015,78
1764361327.9078977,334,1.630859375,36.91792376038334,-3.395615202175047,0.16653798595230995,77
1764361328.0090518,328,1.6015625,36.89739579633934,-5.131023312315616,0.14601002190831025,77
1764361328.1105726,321,1.5673828125,36.89675702999615,-7.155666107479611,0.14537125556512365,78
1764361328.2118587,332,1.62109375,36.907494813020044,-3.974084572221903,0.15610903858901537,79
1764361328.3131986,324,1.58203125,36.64612182188563,-6.287962052409328,-0.10526395254539977,80
1764361328.4149265,325,1.5869140625,36.863281599333014,-5.9987273673859,0.11189582490198546,80
1764361328.5163653,326,1.591796875,36.884393966341534,-5.709492682362471,0.1330081919105055,79
1764361328.6178627,325,1.5869140625,36.681503080582374,-5.9987273673859,-0.06988269384865475,78
1764361328.7195153,333,1.6259765625,36.778950433262715,-3.6848498871984754,0.027564658831686017,77
1764361328.8230436,334,1.630859375,36.674558724140844,-3.395615202175047,-0.07682705029018422,76
1764361328.9453824,338,1.650390625,36.749862564898784,-2.2386764620813353,-0.001523209532244607,75
1764361329.0485408,324,1.58203125,36.80316334227147,-6.287962052409328,0.051777567840439076,74
1764361329.1502323,335,1.6357421875,36.66853921892451,-3.1063805171516194,-0.08284655550652076,72
1764361329.2515767,325,1.5869140625,36.64322585550377,-5.9987273673859,-0.10815991892725663,71
1764361329.353347,322,1.572265625,36.90054338370275,-6.866431422456183,0.14915760927171817,71
1764361329.4551427,340,1.66015625,36.93949678781052,-1.6602070920344794,0.18811101337949054,72
1764361329.556394,323,1.5771484375,36.6993442581435,-6.577196737432756,-0.05204151628753095,72
1764361329.6576486,321,1.5673828125,36.87137284951711,-7.155666107479611,0.11998707508607964,72
1764361329.7588224,327,1.5966796875,36.92877935540661,-5.420257997339043,0.17739358097558267,73
1764361329.8598862,331,1.6162109375,36.66855980754597,-4.263319257245332,-0.08282596688506061,72
1764361329.9611971,327,1.5966796875,36.70371491511684,-5.420257997339043,-0.04767085931418791,71
1764361330.062596,328,1.6015625,36.63885627682891,-5.131023312315616,-0.11252949760211806,71
1764361330.1638746,328,1.6015625,36.717888435161186,-5.131023312315616,-0.033497339269842996,70
1764361330.2660697,340,1.66015625,36.83891823963399,-1.6602070920344794,0.08753246520296187,68
1764361330.367763,337,1.6455078125,36.887823654211594,-2.5279111471047635,0.13643787978056565,67
1764361330.469692,327,1.5966796875,36.56366973330831,-5.420257997339043,-0.18771604112271945,65
1764361330.5713577,340,1.66015625,36.703417808663396,-1.6602070920344794,-0.04796796576763285,64
1764361330.672773,327,1.5966796875,36.86399500144586,-5.420257997339043,0.11260922701482912,63
1764361330.7738926,338,1.650390625,36.605471355099276,-2.2386764620813353,-0.14591441933175275,63
1764361330.8757308,325,1.5869140625,36.70131927224215,-5.9987273673859,-0.05006650218887643,64
1764361330.9768784,331,1.6162109375,36.685992547721916,-4.263319257245332,-0.06539322670911218,64
1764361331.078445,339,1.6552734375,36.91223932652704,-1.9494417770579073,0.1608535520960146,65
1764361331.1799023,339,1.6552734375,36.875707318747835,-1.9494417770579073,0.12432154431680686,64
1764361331.2814982,328,1.6015625,36.81574478957658,-5.131023312315616,0.06435901514554843,64
1764361331.3830538,339,1.6552734375,36.95068359607568,-1.9494417770579073,0.19929782164464882,62
1764361331.4850416,338,1.650390625,36.84315925051024,-2.2386764620813353,0.09177347607921149,61
1764361331.5870872,336,1.640625,36.959013264405066,-2.8171458321281913,0.2076274899740369,60
1764361331.6886313,322,1.572265625,36.93658349788757,-6.866431422456183,0.18519772345653962,60
1764361331.7900326,340,1.66015625,36.69031659512905,-1.6602070920344794,-0.06106917930198108,61
1764361331.8913796,323,1.5771484375,36.71609096070296,-6.577196737432756,-0.03529481372807197,62
1764361331.9927645,340,1.66015625,36.72938096980689,-1.6602070920344794,-0.022004804624138785,62
1764361332.0942812,328,1.6015625,36.94205591570185,-5.131023312315616,0.1906701412708216,64
1764361332.1956055,327,1.5966796875,36.606287284354266,-5.420257997339043,-0.14509849007676223,66
1764361332.2968907,329,1.6064453125,36.82023384701733,-4.841788627292187,0.06884807258629877,66
1764361332.3981972,337,1.6455078125,36.67108700988239,-2.5279111471047635,-0.08029876454863683,67
1764361332.4997685,330,1.611328125,36.925692206932716,-4.5525539422687595,0.17430643250168742,67
1764361332.6013868,340,1.66015625,36.63965629561319,-1.6602070920344794,-0.11172947881783557,67
1764361332.7031913,335,1.6357421875,36.6807677729495,-3.1063805171516194,-0.07061800148152741,67
1764361332.8051143,340,1.66015625,36.58097916852439,-1.6602070920344794,-0.17040660590664203,66
1764361332.9061055,322,1.572265625,36.758955682759876,-6.866431422456183,0.007569908328846964,65
1764361333.007514,326,1.591796875,36.93492656429405,-5.709492682362471,0.1835407898630237,66
1764361333.108969,338,1.650390625,36.88181791912845,-2.2386764620813353,0.1304321446974228,66
1764361333.210705,334,1.630859375,36.602923892392425,-3.395615202175047,-0.14846188203860322,63
1764361333.312406,337,1.6455078125,36.62584140923573,-2.5279111471047635,-0.12554436519529588,62
1764361333.413574,331,1.6162109375,36.741178168690396,-4.263319257245332,-0.010207605740632175,63
1764361333.514937,326,1.591796875,36.665430792277014,-5.709492682362471,-0.0859549821540142,63
1764361333.6163998,329,1.6064453125,36.6495196400841,-4.841788627292187,-0.1018661343469276,62
1764361333.7181861,340,1.66015625,36.86258255758502,-1.6602070920344794,0.11119678315399284,64
1764361333.8201113,338,1.650390625,36.595034884371984,-2.2386764620813353,-0.1563508900590449,66
1764361333.9213548,334,1.630859375,36.914173272995114,-3.395615202175047,0.1627874985640858,64
1764361334.0226495,331,1.6162109375,36.64008153677909,-4.263319257245332,-0.11130423765193598,63
1764361334.1238558,338,1.650390625,36.772231494374225,-2.2386764620813353,0.020845719943196173,62
1764361334.2251353,321,1.5673828125,36.6200615393486,-7.155666107479611,-0.13132423508243107,61
1764361334.326669,331,1.6162109375,36.80288062400889,-4.263319257245332,0.05149484957786399,61
1764361334.427766,323,1.5771484375,36.62981705315661,-6.577196737432756,-0.12156872127442142,62
1764361334.5291886,325,1.5869140625,36.723425379497534,-5.9987273673859,-0.027960394933494115,63
1764361334.6306846,322,1.572265625,36.945125902203614,-6.866431422456183,0.19374012777258542,64
1764361334.731866,329,1.6064453125,36.91416892918093,-4.841788627292187,0.1627831547499028,64
1764361334.833791,327,1.5966796875,36.61899528505719,-5.420257997339043,-0.13239048937384013,63
1764361334.9355707,330,1.611328125,36.68716166922278,-4.5525539422687595,-0.06422410520824684,61
1764361335.0371082,329,1.6064453125,36.94430433015736,-4.841788627292187,0.19291855572632954,59
1764361335.1383476,326,1.591796875,36.730540392858785,-5.709492682362471,-0.020845381572243582,57
1764361335.2396588,320,1.5625,36.674356638235636,-7.44490079250304,-0.07702913619539231,57
1764361335.3409872,327,1.5966796875,36.765054210351806,-5.420257997339043,0.01366843592077771,59
1764361335.4422235,321,1.5673828125,36.78394832190049,-7.155666107479611,0.03256254746946041,61
1764361335.5436993,334,1.630859375,36.7162951687443,-3.395615202175047,-0.03509060568672595,59
1764361335.6448693,340,1.66015625,36.95288114113695,-1.6602070920344794,0.20149536670592028,57
1764361335.7460525,325,1.5869140625,36.65689171239412,-5.9987273673859,-0.09449406203690813,55
1764361335.8476393,340,1.66015625,36.85245814299589,-1.6602070920344794,0.10107236856486423,50
1764361335.9493647,336,1.640625,36.959123857646745,-2.8171458321281913,0.20773808321571607,46
1764361336.050913,333,1.6259765625,36.57556280422905,-3.6848498871984754,-0.17582297020197757,45
1764361336.1524723,332,1.62109375,36.655769598642394,-3.974084572221903,-0.0956161757886349,44
1764361336.253758,322,1.572265625,36.830219590258324,-6.866431422456183,0.07883381582729498,45
1764361336.3550406,331,1.6162109375,36.60307844503874,-4.263319257245332,-0.14830732939228852,45
1764361336.4563532,322,1.572265625,36.603979582851196,-6.866431422456183,-0.14740619157983303,46
1764361336.5579515,335,1.6357421875,36.655926327024865,-3.1063805171516194,-0.09545944740616363,47
1764361336.6591446,336,1.640625,36.655908199012046,-2.8171458321281913,-0.0954775754189825,48
1764361336.760394,331,1.6162109375,36.94897240174093,-4.263319257245332,0.19758662730990295,47
1764361336.8616567,326,1.591796875,36.93907460726456,-5.709492682362471,0.18768883283352977,47
1764361336.963214,322,1.572265625,36.88871250816085,-6.866431422456183,0.13732673372982163,49
1764361337.0641687,332,1.62109375,36.95506269485444,-3.974084572221903,0.2036769204234119,50
1764361337.1654258,334,1.630859375,36.577629311236045,-3.395615202175047,-0.17375646319498372,51
1764361337.2670786,333,1.6259765625,36.562496855448444,-3.6848498871984754,-0.18888891898258464,52
1764361337.368423,336,1.640625,36.74742401177408,-2.8171458321281913,-0.003961762656949475,54
1764361337.469653,337,1.6455078125,36.93048632675465,-2.5279111471047635,0.179100552323618,53
1764361337.5709836,332,1.62109375,36.6465665444396,-3.974084572221903,-0.10481922999142768,53
1764361337.6722336,325,1.5869140625,36.76021877958072,-5.9987273673859,0.008833005149689654,53
1764361337.7739494,324,1.58203125,36.63120510611038,-6.287962052409328,-0.12018066832064989,54
1764361337.8751945,328,1.6015625,36.792419820993274,-5.131023312315616,0.04103404656224541,55
1764361337.976768,333,1.6259765625,36.92142122233152,-3.6848498871984754,0.17003544790048863,57
1764361338.078205,323,1.5771484375,36.92198880714087,-6.577196737432756,0.17060303270984178,58
1764361338.1795566,325,1.5869140625,36.79330804659524,-5.9987273673859,0.04192227216421429,59
1764361338.2813246,330,1.611328125,36.905124610359785,-4.5525539422687595,0.15373883592875615,60
1764361338.3831277,334,1.630859375,36.58816031887607,-3.395615202175047,-0.16322545555495793,60
1764361338.4846518,337,1.6455078125,36.815923397457,-2.5279111471047635,0.06453762302596999,60
1764361338.5862122,339,1.6552734375,36.66058870832816,-1.9494417770579073,-0.09079706610286564,60
1764361338.687523,323,1.5771484375,36.878664116978534,-6.577196737432756,0.12727834254750547,60
1764361338.788748,337,1.6455078125,36.60968220585055,-2.5279111471047635,-0.14170356858048194,60
1764361338.8900506,323,1.5771484375,36.74601715723919,-6.577196737432756,-0.005368617191841452,60
1764361338.9914868,340,1.66015625,36.78252583302725,-1.6602070920344794,0.03114005859622182,60
1764361339.09274,334,1.630859375,36.762671922608064,-3.395615202175047,0.011286148177035216,59
1764361339.194329,328,1.6015625,36.661101436774885,-5.131023312315616,-0.09028433765614352,57
1764361339.298893,340,1.66015625,36.9462387050748,-1.6602070920344794,0.19485293064376918,57
1764361339.4005594,323,1.5771484375,36.734494752176545,-6.577196737432756,-0.0168910222544838,57
1764361339.5020816,323,1.5771484375,36.72098069306619,-6.577196737432756,-0.030405081364840214,57
1764361339.6034846,323,1.5771484375,36.82521255539674,-6.577196737432756,0.07382678096571027,58
1764361339.7048235,334,1.630859375,36.60281120270535,-3.395615202175047,-0.1485745717256819,60
1764361339.8064172,331,1.6162109375,36.8144165653773,-4.263319257245332,0.06303079094627151,61
1764361339.907766,331,1.6162109375,36.720790633305825,-4.263319257245332,-0.030595141125203895,61
1764361340.0091507,328,1.6015625,36.6444389967187,-5.131023312315616,-0.10694677771233074,61
1764361340.1110456,323,1.5771484375,36.801401102254275,-6.577196737432756,0.050015327823246025,61
1764361340.2128198,339,1.6552734375,36.68314127359979,-1.9494417770579073,-0.06824450083124134,61
1764361340.3162467,336,1.640625,36.8541341661419,-2.8171458321281913,0.10274839171086825,60
1764361340.4176426,337,1.6455078125,36.58820380791077,-2.5279111471047635,-0.16318196652025563,59
1764361340.5187109,337,1.6455078125,36.9590090038249,-2.5279111471047635,0.20762322939387445,58
1764361340.6202252,326,1.591796875,36.79591281640752,-5.709492682362471,0.04452704197649382,56
1764361340.7213938,336,1.640625,36.60021686892947,-2.8171458321281913,-0.1511689055015566,55
1764361340.823055,339,1.6552734375,36.87911374473482,-1.9494417770579073,0.1277279703037948,56
1764361340.9245183,338,1.650390625,36.92586543162196,-2.2386764620813353,0.17447965719092906,56
1764361341.025671,327,1.5966796875,36.61426816531156,-5.420257997339043,-0.13711760911947124,56
1764361341.127237,321,1.5673828125,36.84569300424547,-7.155666107479611,0.09430722981444006,57
1764361341.2284245,333,1.6259765625,36.61668386573224,-3.6848498871984754,-0.13470190869878707,58
1764361341.3315496,333,1.6259765625,36.686362023702635,-3.6848498871984754,-0.06502375072839328,57
1764361341.4334245,321,1.5673828125,36.65594377533413,-7.155666107479611,-0.09544199909689866,58
1764361341.534914,334,1.630859375,36.75051002465279,-3.395615202175047,-0.0008757497782383439,59
1764361341.636355,323,1.5771484375,36.62881194188023,-6.577196737432756,-0.12257383255079901,58
1764361341.737665,340,1.66015625,36.869742515314314,-1.6602070920344794,0.11835674088328574,58
1764361341.8392432,337,1.6455078125,36.74953276515674,-2.5279111471047635,-0.0018530092742921056,59
1764361341.9402945,335,1.6357421875,36.773703068468684,-3.1063805171516194,0.0223172940376557,59
1764361342.0417712,335,1.6357421875,36.57633784839726,-3.1063805171516194,-0.17504792603376984,58
1764361342.143418,340,1.66015625,36.77622157734942,-1.6602070920344794,0.02483580291838905,58
1764361342.2450888,338,1.650390625,36.653218701144105,-2.2386764620813353,-0.09816707328692331,57
1764361342.3467176,335,1.6357421875,36.57093273107341,-3.1063805171516194,-0.18045304335761614,55
1764361342.4489806,326,1.591796875,36.72969246939812,-5.709492682362471,-0.02169330503291178,52
1764361342.5505207,322,1.572265625,36.87698759367334,-6.866431422456183,0.12560181924231273,52
1764361342.651855,339,1.6552734375,36.93766004880641,-1.9494417770579073,0.18627427437537847,53
1764361342.7528083,321,1.5673828125,36.783532766318245,-7.155666107479611,0.032146991887216814,55
1764361342.8539147,337,1.6455078125,36.70437661345722,-2.5279111471047635,-0.047009160973807695,57
1764361342.9554887,328,1.6015625,36.8674979313178,-5.131023312315616,0.11611215688677134,58
1764361343.0570679,338,1.650390625,36.958231453899636,-2.2386764620813353,0.2068456794686071,59
1764361343.1581295,321,1.5673828125,36.66818518484578,-7.155666107479611,-0.08320058958524612,60
1764361343.2594526,334,1.630859375,36.906077187125945,-3.395615202175047,0.15469141269491615,59
1764361343.3626165,338,1.650390625,36.881945173906495,-2.2386764620813353,0.1305593994754659,59
1764361343.4645252,327,1.5966796875,36.72442172135922,-5.420257997339043,-0.026964053071807825,60
1764361343.5662992,338,1.650390625,36.561798583572006,-2.2386764620813353,-0.18958719085902231,62
1764361343.6680527,328,1.6015625,36.94552225537366,-5.131023312315616,0.1941364809426318,62
1764361343.7697332,320,1.5625,36.90069886764331,-7.44490079250304,0.14931309321227815,63
1764361343.8712833,327,1.5966796875,36.711526688337635,-5.420257997339043,-0.039859086093393614,64
1764361343.9726167,321,1.5673828125,36.814877313776755,-7.155666107479611,0.06349153934572627,65
1764361344.0743127,334,1.630859375,36.94700433849125,-3.395615202175047,0.1956185640602186,66
1764361344.1759894,322,1.572265625,36.90209483232703,-6.866431422456183,0.15070905789600175,67
1764361344.277625,321,1.5673828125,36.78097359224981,-7.155666107479611,0.029587817818779172,66
1764361344.3791842,333,1.6259765625,36.872606957230126,-3.6848498871984754,0.121221182799097,65
1764361344.4814918,323,1.5771484375,36.927264855016794,-6.577196737432756,0.17587908058576573,64
1764361344.5825112,340,1.66015625,36.78076137638673,-1.6602070920344794,0.029375601955699437,63
1764361344.6838355,334,1.630859375,36.80871306032105,-3.395615202175047,0.05732728589001823,63
1764361344.7851858,325,1.5869140625,36.70667561698722,-5.9987273673859,-0.04471015744380935,63
1764361344.886514,338,1.650390625,36.858016990684135,-2.2386764620813353,0.10663121625310623,62
1764361344.9880202,334,1.630859375,36.75759584411188,-3.395615202175047,0.006210069680854247,65
1764361345.0893679,337,1.6455078125,36.76595128021537,-2.5279111471047635,0.014565505784339905,68
1764361345.1906397,330,1.611328125,36.897872039503625,-4.5525539422687595,0.1464862650725962,68
1764361345.2917736,336,1.640625,36.80207597184688,-2.8171458321281913,0.05069019741585379,69
1764361345.393756,327,1.5966796875,36.61949110681102,-5.420257997339043,-0.1318946676200099,70
1764361345.4955537,335,1.6357421875,36.822824723000714,-3.1063805171516194,0.07143894856968558,69
1764361345.5972383,320,1.5625,36.740005266074874,-7.44490079250304,-0.01138050835615445,68
1764361345.698677,333,1.6259765625,36.9147984151022,-3.6848498871984754,0.16341264067116867,68
1764361345.7998707,336,1.640625,36.65543988184639,-2.8171458321281913,-0.0959458925846377,67
1764361345.9013324,340,1.66015625,36.906313214536645,-1.6602070920344794,0.15492744010561665,65
1764361346.0025868,336,1.640625,36.84165348314793,-2.8171458321281913,0.09026770871690104,63
1764361346.1040263,320,1.5625,36.91966651024447,-7.44490079250304,0.16828073581343972,60
1764361346.2051613,336,1.640625,36.87342865069574,-2.8171458321281913,0.12204287626471455,59
1764361346.3062418,324,1.58203125,36.93656314318418,-6.287962052409328,0.18517736875315194,60
1764361346.407847,329,1.6064453125,36.60495736528789,-4.841788627292187,-0.14642840914314093,61
1764361346.5099573,334,1.630859375,36.809783440427914,-3.395615202175047,0.05839766599688545,63
1764361346.6114428,333,1.6259765625,36.879699023472185,-3.6848498871984754,0.12831324904115604,64
1764361346.7130187,332,1.62109375,36.86576809038589,-3.974084572221903,0.11438231595486315,65
1764361346.814161,326,1.591796875,36.89948424634306,-5.709492682362471,0.14809847191202863,65
1764361346.9154792,327,1.5966796875,36.90874252112332,-5.420257997339043,0.15735674669229383,65
1764361347.017378,323,1.5771484375,36.84246238072747,-6.577196737432756,0.09107660629643988,65
1764361347.1184766,321,1.5673828125,36.77490627948208,-7.155666107479611,0.023520505051052965,65
1764361347.2196453,336,1.640625,36.90469987074864,-2.8171458321281913,0.15331409631760806,65
1764361347.3208182,324,1.58203125,36.91206733372314,-6.287962052409328,0.16068155929210803,67
1764361347.4224482,330,1.611328125,36.815737228460875,-4.5525539422687595,0.06435145402984688,69
1764361347.52419,325,1.5869140625,36.76798844422982,-5.9987273673859,0.0166026697987931,72
1764361347.6260326,328,1.6015625,36.63077799348439,-5.131023312315616,-0.12060778094664215,76
1764361347.7283118,339,1.6552734375,36.652848770284436,-1.9494417770579073,-0.09853700414659272,79
1764361347.829883,331,1.6162109375,36.9513562707812,-4.263319257245332,0.1999704963501685,78
1764361347.9312077,336,1.640625,36.767018432745715,-2.8171458321281913,0.01563265831468641,76
1764361348.032124,325,1.5869140625,36.89733231902181,-5.9987273673859,0.14594654459077816,75
1764361348.133726,338,1.650390625,36.64839338664446,-2.2386764620813353,-0.10299238778657127,71
1764361348.2349858,329,1.6064453125,36.85622714580625,-4.841788627292187,0.10484137137522254,68
1764361348.336576,341,1.6650390625,36.768215358726586,-1.3709724070110514,0.016829584295557254,67
1764361348.4377484,334,1.630859375,36.65007742809395,-3.395615202175047,-0.10130834633707764,67
1764361348.5535347,328,1.6015625,36.74903847933392,-5.131023312315616,-0.002347295097109736,66
1764361348.6614072,337,1.6455078125,36.957453149247144,-2.5279111471047635,0.20606737481611503,67
1764361348.7627735,327,1.5966796875,36.71666167350711,-5.420257997339043,-0.03472410092391698,65
1764361348.8640234,328,1.6015625,36.580005423124966,-5.131023312315616,-0.17138035130606255,65
1764361348.965465,320,1.5625,36.92276215748105,-7.44490079250304,0.17137638305002412,65
1764361349.0669453,326,1.591796875,36.594568092714816,-5.709492682362471,-0.15681768171621258,65
1764361349.1681032,322,1.572265625,36.930580181827004,-6.866431422456183,0.17919440739597547,68
1764361349.268921,333,1.6259765625,36.69425558851385,-3.6848498871984754,-0.05713018591718111,72
1764361349.3706026,329,1.6064453125,36.84516730281725,-4.841788627292187,0.09378152838622356,74
1764361349.472081,339,1.6552734375,36.606065584626904,-1.9494417770579073,-0.1453201898041243,75
1764361349.573931,331,1.6162109375,36.93334618376177,-4.263319257245332,0.18196040933074187,76
1764361349.675835,326,1.591796875,36.75565533080716,-5.709492682362471,0.004269556376129913,75
1764361349.7778,321,1.5673828125,36.80731674130628,-7.155666107479611,0.0559309668752519,73
1764361349.8793344,333,1.6259765625,36.612942422514514,-3.6848498871984754,-0.13844335191651425,73
1764361349.980501,321,1.5673828125,36.59370215045357,-7.155666107479611,-0.15768362397745506,72
1764361350.0817506,332,1.62109375,36.76235145226365,-3.974084572221903,0.010965677832622589,72
1764361350.1831467,327,1.5966796875,36.62082657665957,-5.420257997339043,-0.1305591977714613,72
1764361350.2843766,337,1.6455078125,36.59821067081844,-2.5279111471047635,-0.15317510361258968,72
1764361350.3858116,334,1.630859375,36.77490854460594,-3.395615202175047,0.023522770174913887,71
1764361350.4871032,338,1.650390625,36.61742351048399,-2.2386764620813353,-0.13396226394704058,71
1764361350.5886428,331,1.6162109375,36.78898332174307,-4.263319257245332,0.037597547312039126,70
1764361350.6905885,326,1.591796875,36.954743973214384,-5.709492682362471,0.2033581987833557,70
1764361350.7926364,331,1.6162109375,36.66614133131362,-4.263319257245332,-0.08524444311741064,70
1764361350.8939004,322,1.572265625,36.66971955565961,-6.866431422456183,-0.08166621877141722,69
1764361350.9952443,323,1.5771484375,36.915344248430664,-6.577196737432756,0.16395847399963515,69
1764361351.0965946,333,1.6259765625,36.84236206836054,-3.6848498871984754,0.0909762939295149,69
1764361351.1980662,338,1.650390625,36.82245596674838,-2.2386764620813353,0.07107019231735023,69
1764361351.2992635,328,1.6015625,36.64873953210298,-5.131023312315616,-0.1026462423280492,70
1764361351.4006357,333,1.6259765625,36.59568123409234,-3.6848498871984754,-0.1557045403386894,70
1764361351.5020657,340,1.66015625,36.85326004510358,-1.6602070920344794,0.10187427067255328,70
1764361351.6032565,337,1.6455078125,36.94452611672767,-2.5279111471047635,0.193140342296644,69
1764361351.7050555,324,1.58203125,36.7552905248576,-6.287962052409328,0.003904750426571013,68
1764361351.806755,325,1.5869140625,36.692573131900545,-5.9987273673859,-0.05881264253048357,68
1764361351.9082625,324,1.58203125,36.766354670674595,-6.287962052409328,0.014968896243566121,68
1764361352.0095959,340,1.66015625,36.64254803091124,-1.6602070920344794,-0.10883774351978559,69
1764361352.1107655,331,1.6162109375,36.86697957055366,-4.263319257245332,0.11559379612263143,70
1764361352.2119026,321,1.5673828125,36.5910134182983,-7.155666107479611,-0.1603723561327257,71
1764361352.3133814,326,1.591796875,36.69792493664866,-5.709492682362471,-0.05346083778236732,71
1764361352.4149942,325,1.5869140625,36.657044855162674,-5.9987273673859,-0.09434091926835464,71
1764361352.5165832,333,1.6259765625,36.689236621713086,-3.6848498871984754,-0.06214915271794297,71
1764361352.6176035,321,1.5673828125,36.683741528305234,-7.155666107479611,-0.0676442461257949,71
1764361352.7185674,332,1.62109375,36.6137716497671,-3.974084572221903,-0.13761412466392642,72
1764361352.8200996,321,1.5673828125,36.731647649022044,-7.155666107479611,-0.019738125408984786,71
1764361352.922128,325,1.5869140625,36.825534104074045,-5.9987273673859,0.0741483296430161,71
1764361353.0244453,325,1.5869140625,36.69606425768084,-5.9987273673859,-0.05532151675019037,71
1764361353.1258764,340,1.66015625,36.78731868954417,-1.6602070920344794,0.03593291511314334,70
1764361353.2273545,329,1.6064453125,36.653339038620835,-4.841788627292187,-0.0980467358101933,69
1764361353.3283217,338,1.650390625,36.77242216302115,-2.2386764620813353,0.021036388590118804,68
1764361353.4296901,327,1.5966796875,36.63702245681523,-5.420257997339043,-0.11436331761579765,68
1764361353.5308394,328,1.6015625,36.67618504152731,-5.131023312315616,-0.07520073290371698,67
1764361353.6324785,332,1.62109375,36.759891774657554,-3.974084572221903,0.008506000226525146,68
1764361353.7337332,325,1.5869140625,36.749270632582835,-5.9987273673859,-0.0021151418481935025,69
1764361353.835181,335,1.6357421875,36.90811850933354,-3.1063805171516194,0.15673273490251205,70
1764361353.9367454,335,1.6357421875,36.69074807469805,-3.1063805171516194,-0.060637699732978945,71
1764361354.0383456,335,1.6357421875,36.858159566056976,-3.1063805171516194,0.10677379162594747,71
1764361354.1397173,338,1.650390625,36.86422215592211,-2.2386764620813353,0.11283638149107844,69
1764361354.2429972,336,1.640625,36.62104717756267,-2.8171458321281913,-0.1303385968683557,68
1764361354.3451881,340,1.66015625,36.72871612099783,-1.6602070920344794,-0.022669653433197823,66
1764361354.4467525,340,1.66015625,36.56449315950603,-1.6602070920344794,-0.1868926149250001,65
1764361354.5483818,337,1.6455078125,36.891265182392786,-2.5279111471047635,0.13987940796175735,63
1764361354.6497018,325,1.5869140625,36.72301163210207,-5.9987273673859,-0.028374142328956964,63
1764361354.750952,324,1.58203125,36.726794169751244,-6.287962052409328,-0.024591604679784496,63
1764361354.8521156,330,1.611328125,36.90838888997501,-4.5525539422687595,0.15700311554397928,63
1764361354.9542563,332,1.62109375,36.66960397597479,-3.974084572221903,-0.081781798456241,63
1764361355.055741,326,1.591796875,36.83810275481772,-5.709492682362471,0.08671698038669007,62
1764361355.15745,340,1.66015625,36.90263869783926,-1.6602070920344794,0.15125292340822938,63
1764361355.2591357,332,1.62109375,36.76884270083123,-3.974084572221903,0.017456926400200246,63
1764361355.3600805,328,1.6015625,36.91805281217781,-5.131023312315616,0.16666703774678382,64
1764361355.461227,334,1.630859375,36.8979902237607,-3.395615202175047,0.1466044493296721,65
1764361355.5626132,321,1.5673828125,36.589777977021484,-7.155666107479611,-0.16160779740954467,65
1764361355.6637833,340,1.66015625,36.84164896239645,-1.6602070920344794,0.09026318796541943,63
1764361355.765303,322,1.572265625,36.750649333798634,-6.866431422456183,-0.0007364406323944195,61
1764361355.8668017,328,1.6015625,36.57725177061663,-5.131023312315616,-0.1741340038144017,59
1764361355.9678466,335,1.6357421875,36.89030422079796,-3.1063805171516194,0.13891844636692952,57
1764361356.069064,336,1.640625,36.829649520569596,-2.8171458321281913,0.07826374613856757,56
1764361356.1705127,331,1.6162109375,36.65147290362488,-4.263319257245332,-0.09991287080615052,54
1764361356.2721117,336,1.640625,36.82689369880439,-2.8171458321281913,0.07550792437336185,56
1764361356.3735387,321,1.5673828125,36.62465975974521,-7.155666107479611,-0.126726014685822,56
1764361356.4750545,340,1.66015625,36.687974187868086,-1.6602070920344794,-0.06341158656294255,56
1764361356.5761952,336,1.640625,36.605467335694,-2.8171458321281913,-0.14591843873702715,56
1764361356.677555,332,1.62109375,36.61213912777166,-3.974084572221903,-0.13924664665936604,57
1764361356.7790477,324,1.58203125,36.61212375277219,-6.287962052409328,-0.13926202165883694,55
1764361356.8799663,322,1.572265625,36.57023346572664,-6.866431422456183,-0.18115230870439092,55
1764361356.981071,331,1.6162109375,36.78020498541272,-4.263319257245332,0.02881921098169471,55
1764361357.0822608,331,1.6162109375,36.636805403669655,-4.263319257245332,-0.11458037076137373,55
1764361357.1835346,336,1.640625,36.69588656735754,-2.8171458321281913,-0.05549920707348832,55
1764361357.2846258,321,1.5673828125,36.67130796856226,-7.155666107479611,-0.08007780586876834,57
1764361357.3867595,340,1.66015625,36.811725396512195,-1.6602070920344794,0.060339622081166056,59
1764361357.4881563,325,1.5869140625,36.82878652915833,-5.9987273673859,0.07740075472730013,60
1764361357.5898101,336,1.640625,36.660422901988085,-2.8171458321281913,-0.09096287244294388,62
1764361357.6911814,323,1.5771484375,36.86263725078249,-6.577196737432756,0.11125147635146249,63
1764361357.792512,324,1.58203125,36.617260998122866,-6.287962052409328,-0.13412477630816255,62
1764361357.8937492,334,1.630859375,36.70019764100538,-3.395615202175047,-0.05118813342564721,62
1764361357.9949243,339,1.6552734375,36.94409457200526,-1.9494417770579073,0.19270879757423387,61
1764361358.0964274,324,1.58203125,36.756657019329495,-6.287962052409328,0.005271244898466421,60
1764361358.1977158,323,1.5771484375,36.88009088302052,-6.577196737432756,0.12870510858949302,60
1764361358.298827,333,1.6259765625,36.931058565938315,-3.6848498871984754,0.17967279150728643,60
1764361358.400019,331,1.6162109375,36.89325018084463,-4.263319257245332,0.1418644064136032,61
1764361358.502379,336,1.640625,36.7727513550454,-2.8171458321281913,0.021365580614371993,62
1764361358.6045053,320,1.5625,36.84032157664187,-7.44490079250304,0.08893580221084108,64
1764361358.7059355,330,1.611328125,36.658105704670376,-4.5525539422687595,-0.0932800697606524,64
1764361358.8072457,327,1.5966796875,36.80769580038776,-5.420257997339043,0.05631002595673351,64
1764361358.9086428,326,1.591796875,36.95556966992108,-5.709492682362471,0.2041838954900541,64
1764361359.0097482,325,1.5869140625,36.852730122071364,-5.9987273673859,0.10134434764033529,64
1764361359.1110036,334,1.630859375,36.589775165851826,-3.395615202175047,-0.16161060857920262,64
1764361359.2129154,334,1.630859375,36.77683781715909,-3.395615202175047,0.02545204272806245,64
1764361359.3141215,321,1.5673828125,36.867096900151225,-7.155666107479611,0.11571112572019615,64
1764361359.415309,335,1.6357421875,36.583133528037706,-3.1063805171516194,-0.16825224639332248,63
1764361359.5168886,335,1.6357421875,36.95831022997202,-3.1063805171516194,0.20692445554099237,62
1764361359.618455,329,1.6064453125,36.66929415992572,-4.841788627292187,-0.082091614505309,61
1764361359.7203848,324,1.58203125,36.9500294977766,-6.287962052409328,0.1986437233455689,61
1764361359.8222098,334,1.630859375,36.784167999701026,-3.395615202175047,0.03278222526999741,60
1764361359.9233592,330,1.611328125,36.69232386579981,-4.5525539422687595,-0.05906190863122163,59
1764361360.024329,340,1.66015625,36.74770558296145,-1.6602070920344794,-0.0036801914695772098,58
1764361360.125776,324,1.58203125,36.919268518051105,-6.287962052409328,0.16788274362007627,57
1764361360.2272012,339,1.6552734375,36.755195970023166,-1.9494417770579073,0.0038101955921376884,57
1764361360.3286119,327,1.5966796875,36.713570639444725,-5.420257997339043,-0.03781513498630318,56
1764361360.4301996,325,1.5869140625,36.79674253682045,-5.9987273673859,0.04535676238942443,56
1764361360.532154,340,1.66015625,36.7806123411717,-1.6602070920344794,0.029226566740668147,58
1764361360.6341054,325,1.5869140625,36.73110129191673,-5.9987273673859,-0.02028448251429893,58
1764361360.7360177,340,1.66015625,36.6893375322025,-1.6602070920344794,-0.062048242228527783,58
1764361360.8376245,334,1.630859375,36.928761940827364,-3.395615202175047,0.17737616639633558,60
1764361360.9691913,330,1.611328125,36.87807678845302,-4.5525539422687595,0.12669101402199345,61
1764361361.0705824,331,1.6162109375,36.5917398692897,-4.263319257245332,-0.15964590514133192,61
1764361361.1719604,323,1.5771484375,36.75324448488676,-6.577196737432756,0.0018587104557283851,62
1764361361.273099,331,1.6162109375,36.914060869309495,-4.263319257245332,0.1626750948784661,62
1764361361.3743982,335,1.6357421875,36.7406279253801,-3.1063805171516194,-0.010757849050925472,62
1764361361.4756947,332,1.62109375,36.729863785688515,-3.974084572221903,-0.021521988742513543,62
1764361361.5770974,338,1.650390625,36.75097206400168,-2.2386764620813353,-0.0004137104293491234,62
1764361361.6783013,331,1.6162109375,36.94986271110629,-4.263319257245332,0.198476936675263,62
1764361361.7793398,331,1.6162109375,36.674903472759055,-4.263319257245332,-0.07648230167197312,63
1764361361.8808901,333,1.6259765625,36.80876185084289,-3.6848498871984754,0.05737607641186315,64
1764361361.9824789,325,1.5869140625,36.902649484597376,-5.9987273673859,0.1512637101663472,64
1764361362.083922,340,1.66015625,36.65485662617219,-1.6602070920344794,-0.0965291482588384,62
1764361362.1857038,339,1.6552734375,36.59694816624826,-1.9494417770579073,-0.15443760818276786,61
1764361362.287324,338,1.650390625,36.64249767251249,-2.2386764620813353,-0.10888810191853793,61
1764361362.388434,322,1.572265625,36.915581522868465,-6.866431422456183,0.1641957484374359,60
1764361362.4895525,338,1.650390625,36.94346990990315,-2.2386764620813353,0.1920841354721219,60
1764361362.5910285,325,1.5869140625,36.65826358135285,-5.9987273673859,-0.09312219307818026,60
1764361362.6921048,323,1.5771484375,36.56196722114537,-6.577196737432756,-0.18941855328565538,61
1764361362.7934544,320,1.5625,36.61166568663301,-7.44490079250304,-0.13972008779801826,61
1764361362.8951232,322,1.572265625,36.81165701558438,-6.866431422456183,0.060271241153351696,61
1764361362.9968312,338,1.650390625,36.745288358781515,-2.2386764620813353,-0.0060974156495134935,61
1764361363.0984366,340,1.66015625,36.572931426168644,-1.6602070920344794,-0.1784543482623846,61
1764361363.2004747,326,1.591796875,36.84330563453774,-5.709492682362471,0.09191986010671371,61
1764361363.3024397,335,1.6357421875,36.7948178086649,-3.1063805171516194,0.04343203423387365,61
1764361363.4040415,328,1.6015625,36.81423672488037,-5.131023312315616,0.06285095044933797,63
1764361363.5054007,331,1.6162109375,36.63567960162854,-4.263319257245332,-0.11570617280248996,63
1764361363.606331,328,1.6015625,36.71613754135417,-5.131023312315616,-0.03524823307685665,64
1764361363.7073524,329,1.6064453125,36.90127621329318,-4.841788627292187,0.14989043886215114,64
1764361363.8085148,330,1.611328125,36.872796225414255,-4.5525539422687595,0.12141045098322678,64
1764361363.910025,323,1.5771484375,36.59461826708838,-6.577196737432756,-0.15676750734265,62
1764361364.0113618,330,1.611328125,36.63670595540384,-4.5525539422687595,-0.11467981902718805,62
1764361364.1127732,327,1.5966796875,36.71999140749602,-5.420257997339043,-0.031394366935010964,62
1764361364.2141805,337,1.6455078125,36.67512249836371,-2.5279111471047635,-0.07626327606731564,62
1764361364.3160563,333,1.6259765625,36.56878313187793,-3.6848498871984754,-0.18260264255309977,62
1764361364.4176831,326,1.591796875,36.89487879575923,-5.709492682362471,0.1434930213282044,64
1764361364.518939,330,1.611328125,36.560548446144566,-4.5525539422687595,-0.19083732828646305,66
1764361364.6200962,326,1.591796875,36.856133635155295,-5.709492682362471,0.10474786072426667,67
1764361364.7210822,328,1.6015625,36.62571472216531,-5.131023312315616,-0.12567105226571584,69
1764361364.8220036,339,1.6552734375,36.60417519163803,-1.9494417770579073,-0.1472105827930008,71
1764361364.9232993,328,1.6015625,36.66820358840042,-5.131023312315616,-0.08318218603061212,71
1764361365.0251203,330,1.611328125,36.72797936353165,-4.5525539422687595,-0.02340641089937634,70
1764361365.1267076,321,1.5673828125,36.68783206791813,-7.155666107479611,-0.0635537065128986,70
1764361365.2280426,327,1.5966796875,36.69148733169125,-5.420257997339043,-0.05989844273977951,70
1764361365.329536,326,1.591796875,36.69279816526825,-5.709492682362471,-0.058587609162778165,71
1764361365.4314892,330,1.611328125,36.923081564868376,-4.5525539422687595,0.17169579043734728,71
1764361365.5332735,323,1.5771484375,36.67918678099069,-6.577196737432756,-0.0721989934403382,72
1764361365.6351168,322,1.572265625,36.77459867170814,-6.866431422456183,0.023212897277112177,73
1764361365.736184,332,1.62109375,36.83504144208482,-3.974084572221903,0.08365566765379384,73
1764361365.8375008,323,1.5771484375,36.693646267011474,-6.577196737432756,-0.057739507419555025,73
1764361365.9384484,332,1.62109375,36.61212415112249,-3.974084572221903,-0.13926162330854197,73
1764361366.0395584,332,1.62109375,36.84190541354437,-3.974084572221903,0.09051963911333871,73
1764361366.1411862,331,1.6162109375,36.59258621514907,-4.263319257245332,-0.15879955928195955,73
1764361366.2424092,323,1.5771484375,36.75418382600329,-6.577196737432756,0.002798051572263205,71
1764361366.343748,337,1.6455078125,36.62575816681306,-2.5279111471047635,-0.12562760761797165,71
1764361366.44522,338,1.650390625,36.80309163296224,-2.2386764620813353,0.05170585853121423,70
1764361366.547357,340,1.66015625,36.901397355918654,-1.6602070920344794,0.15001158148762528,68
1764361366.6491663,335,1.6357421875,36.65832680053378,-3.1063805171516194,-0.09305897389725004,66
1764361366.7506168,327,1.5966796875,36.70653041870611,-5.420257997339043,-0.04485535572491983,64
1764361366.8518746,336,1.640625,36.72190974304259,-2.8171458321281913,-0.029476031388441015,62
1764361366.9536743,336,1.640625,36.68437962662107,-2.8171458321281913,-0.06700614780995551,61
1764361367.0547776,333,1.6259765625,36.62251774532814,-3.6848498871984754,-0.12886802910288964,61
1764361367.156232,326,1.591796875,36.676720223720345,-5.709492682362471,-0.0746655507106837,62
1764361367.2577782,335,1.6357421875,36.70584688865961,-3.1063805171516194,-0.04553888577142118,64
1764361367.3593504,328,1.6015625,36.59481309111922,-5.131023312315616,-0.15657268331180774,65
1764361367.460871,330,1.611328125,36.68856016262257,-4.5525539422687595,-0.06282561180845647,65
1764361367.562019,332,1.62109375,36.852161500033226,-3.974084572221903,0.1007757256021975,64
1764361367.663549,326,1.591796875,36.93900163394528,-5.709492682362471,0.18761585951425275,63
1764361367.7658222,326,1.591796875,36.65540745541145,-5.709492682362471,-0.09597831901957932,63
1764361367.867935,324,1.58203125,36.73262073648548,-6.287962052409328,-0.018765037945549068,63
1764361367.9690151,334,1.630859375,36.765998946192205,-3.395615202175047,0.014613171761176602,64
1764361368.0703413,335,1.6357421875,36.6360382028545,-3.1063805171516194,-0.1153475715765282,66
1764361368.1717064,334,1.630859375,36.879599917855764,-3.395615202175047,0.12821414342473503,66
1764361368.273195,333,1.6259765625,36.773642411633325,-3.6848498871984754,0.02225663720229676,65
1764361368.3747208,337,1.6455078125,36.86941806329831,-2.5279111471047635,0.11803228886728334,65
1764361368.4764683,332,1.62109375,36.955395116405036,-3.974084572221903,0.20400934197400744,65
1764361368.5776353,339,1.6552734375,36.6628200599369,-1.9494417770579073,-0.08856571449413053,65
1764361368.6796603,327,1.5966796875,36.62181775453843,-5.420257997339043,-0.12956801989260214,64
1764361368.7812283,326,1.591796875,36.69135289787248,-5.709492682362471,-0.06003287655855161,64
1764361368.8829093,327,1.5966796875,36.9086206592371,-5.420257997339043,0.15723488480607273,63
1764361368.9841235,321,1.5673828125,36.861467490005246,-7.155666107479611,0.11008171557421775,61
1764361369.0855024,332,1.62109375,36.695436001048364,-3.974084572221903,-0.0559497733826646,59
1764361369.187016,333,1.6259765625,36.908496847426136,-3.6848498871984754,0.1571110729951073,59
1764361369.2886052,336,1.640625,36.7413232606241,-2.8171458321281913,-0.010062513806929019,59
1764361369.3908315,339,1.6552734375,36.780358850619855,-1.9494417770579073,0.028973076188826496,59
1764361369.4919238,333,1.6259765625,36.65508026224753,-3.6848498871984754,-0.09630551218349837,61
1764361369.5932527,339,1.6552734375,36.785976403097514,-1.9494417770579073,0.03459062866648566,62
1764361369.6951125,330,1.611328125,36.63127786915628,-4.5525539422687595,-0.12010790527475024,62
1764361369.79617,327,1.5966796875,36.57897359421437,-5.420257997339043,-0.17241218021666072,63
1764361369.8985229,330,1.611328125,36.60625790528964,-4.5525539422687595,-0.14512786914139042,64
1764361369.9999967,325,1.5869140625,36.71274742972023,-5.9987273673859,-0.03863834471079741,64
1764361370.101643,336,1.640625,36.844829082695775,-2.8171458321281913,0.0934433082647459,63
1764361370.203364,325,1.5869140625,36.5996841427296,-5.9987273673859,-0.15170163170142814,63
1764361370.3049083,332,1.62109375,36.778580915264136,-3.974084572221903,0.0271951408331077,63
1764361370.4060464,339,1.6552734375,36.57794864173578,-1.9494417770579073,-0.1734371326952484,62
1764361370.5079072,338,1.650390625,36.65052161331754,-2.2386764620813353,-0.10086416111349195,62
1764361370.6092064,331,1.6162109375,36.56052308584231,-4.263319257245332,-0.1908626885887159,62
1764361370.7130957,322,1.572265625,36.61056166135834,-6.866431422456183,-0.14082411307268927,62
1764361370.814903,330,1.611328125,36.77227984422076,-4.5525539422687595,0.020894069789733294,62
1764361370.916031,338,1.650390625,36.80847347084245,-2.2386764620813353,0.05708769641142197,62
1764361371.0176585,338,1.650390625,36.906690605735236,-2.2386764620813353,0.15530483130420691,61
1764361371.1191375,335,1.6357421875,36.68301036767944,-3.1063805171516194,-0.06837540675159204,61
1764361371.2203858,329,1.6064453125,36.83692538921515,-4.841788627292187,0.08553961478412475,60
1764361371.3217044,329,1.6064453125,36.71464733261194,-4.841788627292187,-0.036738441819089473,60
1764361371.422864,329,1.6064453125,36.77853271060128,-4.841788627292187,0.02714693617025432,60
1764361371.5240533,328,1.6015625,36.73698087740886,-5.131023312315616,-0.014404897022167518,59
1764361371.625546,331,1.6162109375,36.737927447756306,-4.263319257245332,-0.013458326674722798,59
1764361371.726917,329,1.6064453125,36.57882663531069,-4.841788627292187,-0.17255913912033805,58
1764361371.829592,332,1.62109375,36.57937079004539,-3.974084572221903,-0.17201498438564045,58
1764361371.9309156,325,1.5869140625,36.918852349586274,-5.9987273673859,0.16746657515524532,58
1764361372.0323899,334,1.630859375,36.63804067944572,-3.395615202175047,-0.11334509498530565,58
1764361372.1345458,322,1.572265625,36.808227250531004,-6.866431422456183,0.05684147609997581,58
1764361372.2358463,334,1.630859375,36.77531395089285,-3.395615202175047,0.02392817646182266,58
1764361372.3371544,331,1.6162109375,36.6424779741092,-4.263319257245332,-0.10890780032183045,57
1764361372.438694,336,1.640625,36.83354865669541,-2.8171458321281913,0.0821628822643845,57
1764361372.5398319,340,1.66015625,36.69611598085698,-1.6602070920344794,-0.055269793574048265,56
1764361372.6414497,338,1.650390625,36.65422481017886,-2.2386764620813353,-0.09716096425216847,55
1764361372.7426884,321,1.5673828125,36.65979652613866,-7.155666107479611,-0.09158924829236526,54
1764361372.84428,326,1.591796875,36.6566686460736,-5.709492682362471,-0.09471712835743062,53
1764361372.946695,340,1.66015625,36.686233006161174,-1.6602070920344794,-0.06515276826985428,51
1764361373.0482042,327,1.5966796875,36.71972964519162,-5.420257997339043,-0.031656129239408415,52
1764361373.1494062,337,1.6455078125,36.596465752355016,-2.5279111471047635,-0.15492002207601274,53
1764361373.2507918,330,1.611328125,36.92416740898383,-4.5525539422687595,0.17278163455279838,54
1764361373.3519516,330,1.611328125,36.743611713596444,-4.5525539422687595,-0.007774060834584873,55
1764361373.4533353,339,1.6552734375,36.957781053122424,-1.9494417770579073,0.20639527869139584,56
1764361373.5546079,331,1.6162109375,36.56421987921617,-4.263319257245332,-0.1871658952148607,56
1764361373.6558611,328,1.6015625,36.691174703179364,-5.131023312315616,-0.060211071251664805,56
1764361373.7570662,321,1.5673828125,36.6172503687876,-7.155666107479611,-0.13413540564342696,55
1764361373.858023,323,1.5771484375,36.922443156994355,-6.577196737432756,0.17105738256332614,55
1764361373.9617174,325,1.5869140625,36.81474784820926,-5.9987273673859,0.06336207377822944,55
1764361374.063227,337,1.6455078125,36.66547440339094,-2.5279111471047635,-0.0859113710400905,55
1764361374.1643107,323,1.5771484375,36.67069401892349,-6.577196737432756,-0.08069175550753727,55
1764361374.2657082,330,1.611328125,36.65189268093764,-4.5525539422687595,-0.0994930934933862,55
1764361374.3669615,326,1.591796875,36.560529190795584,-5.709492682362471,-0.1908565836354441,54
1764361374.4681375,327,1.5966796875,36.71789301848035,-5.420257997339043,-0.033492755950675246,53
1764361374.5694008,337,1.6455078125,36.94639974546375,-2.5279111471047635,0.1950139710327221,53
1764361374.6704736,336,1.640625,36.5694059201189,-2.8171458321281913,-0.18197985431212516,52
1764361374.7716088,327,1.5966796875,36.83928458484245,-5.420257997339043,0.08789881041142422,51
1764361374.8731625,327,1.5966796875,36.782318108455044,-5.420257997339043,0.030932334024015518,52
1764361374.9751294,333,1.6259765625,36.719279783166215,-3.6848498871984754,-0.03210599126481384,53
1764361375.0764434,327,1.5966796875,36.74366116245994,-5.420257997339043,-0.007724611971092088,53
1764361375.1781683,340,1.66015625,36.90543164014665,-1.6602070920344794,0.15404586571562362,55
1764361375.2794209,327,1.5966796875,36.61144679812652,-5.420257997339043,-0.13993897630450647,56
1764361375.3813722,336,1.640625,36.61147798023335,-2.8171458321281913,-0.13990779419767563,56
1764361375.4828012,322,1.572265625,36.86596012139008,-6.866431422456183,0.11457434695905278,56
1764361375.5841165,324,1.58203125,36.8299605542728,-6.287962052409328,0.07857477984177308,56
1764361375.685786,321,1.5673828125,36.671389876218285,-7.155666107479611,-0.07999589821274355,56
1764361375.7872581,322,1.572265625,36.756377469085706,-6.866431422456183,0.004991694654677303,56
1764361375.8888984,336,1.640625,36.59325147030752,-2.8171458321281913,-0.15813430412350726,56
1764361375.9910514,325,1.5869140625,36.697068251864295,-5.9987273673859,-0.054317522566734056,56
1764361376.0925639,328,1.6015625,36.89915542486254,-5.131023312315616,0.14776965043151336,57
1764361376.1940985,337,1.6455078125,36.56878619611568,-2.5279111471047635,-0.18259957831534734,57
1764361376.2953198,322,1.572265625,36.567342585005065,-6.866431422456183,-0.18404318942596376,57
1764361376.396558,331,1.6162109375,36.72533301446348,-4.263319257245332,-0.02605275996754841,57
1764361376.497911,334,1.630859375,36.5671272528335,-3.395615202175047,-0.18425852159752765,57
1764361376.5988402,335,1.6357421875,36.77397183111878,-3.1063805171516194,0.022586056687750045,56
1764361376.6998966,339,1.6552734375,36.90183128140647,-1.9494417770579073,0.15044550697544423,54
1764361376.8011715,331,1.6162109375,36.885360102784986,-4.263319257245332,0.13397432835395762,54
1764361376.9027832,324,1.58203125,36.710928911016396,-6.287962052409328,-0.04045686341463295,54
1764361377.004356,327,1.5966796875,36.60385512852344,-5.420257997339043,-0.1475306459075867,55
1764361377.1054482,328,1.6015625,36.877931473640395,-5.131023312315616,0.1265456992093661,56
1764361377.2068856,335,1.6357421875,36.81316976631591,-3.1063805171516194,0.06178399188488015,57
1764361377.3096516,326,1.591796875,36.84968027493269,-5.709492682362471,0.09829450050165889,58
1764361377.411088,340,1.66015625,36.91962108054379,-1.6602070920344794,0.16823530611276283,58
1764361377.5129225,333,1.6259765625,36.87667869095372,-3.6848498871984754,0.1252929165226888,59
1764361377.6140888,328,1.6015625,36.95629934323228,-5.131023312315616,0.20491356880125267,60
1764361377.7160354,324,1.58203125,36.73588396909892,-6.287962052409328,-0.01550180533210721,61
1764361377.8173645,328,1.6015625,36.62466198988998,-5.131023312315616,-0.12672378454104916,61
1764361377.9186099,329,1.6064453125,36.57024238562803,-4.841788627292187,-0.18114338880300096,62
1764361378.019893,330,1.611328125,36.72483167130589,-4.5525539422687595,-0.026554103125135953,62
1764361378.1215787,324,1.58203125,36.65099503855686,-6.287962052409328,-0.10039073587417136,62
1764361378.2233138,320,1.5625,36.89183323073362,-7.44490079250304,0.1404474563025886,62
1764361378.324549,330,1.611328125,36.68823831956354,-4.5525539422687595,-0.06314745486749018,62
1764361378.4263344,322,1.572265625,36.714342193320036,-6.866431422456183,-0.03704358111099282,62
1764361378.5279996,323,1.5771484375,36.685247403783286,-6.577196737432756,-0.0661383706477423,62
1764361378.629462,334,1.630859375,36.773311081807236,-3.395615202175047,0.02192530737620757,62
1764361378.7304533,324,1.58203125,36.87293975244625,-6.287962052409328,0.12155397801522128,61
1764361378.8319564,320,1.5625,36.746554962657115,-7.44490079250304,-0.004830811773913979,61
1764361378.9331827,329,1.6064453125,36.73943741009963,-4.841788627292187,-0.011948364331395567,61
1764361379.0344865,329,1.6064453125,36.572795581602385,-4.841788627292187,-0.17859019282864352,61
1764361379.1357527,340,1.66015625,36.896308384235994,-1.6602070920344794,0.14492260980496496,60
1764361379.2370768,339,1.6552734375,36.642871129416925,-1.9494417770579073,-0.1085146450141039,61
1764361379.3383603,339,1.6552734375,36.75089119276158,-1.9494417770579073,-0.0004945816694501559,61
1764361379.440298,335,1.6357421875,36.560438483020576,-3.1063805171516194,-0.19094729141045264,60
1764361379.542148,329,1.6064453125,36.66440835419405,-4.841788627292187,-0.08697742023697685,60
1764361379.6436696,328,1.6015625,36.58940803500629,-5.131023312315616,-0.16197773942474214,59
1764361379.7451305,340,1.66015625,36.69446754541763,-1.6602070920344794,-0.05691822901339805,57
1764361379.8467,333,1.6259765625,36.625299733224445,-3.6848498871984754,-0.12608604120658384,57
1764361379.9483328,332,1.62109375,36.921551363834766,-3.974084572221903,0.17016558940373727,57
1764361380.049646,327,1.5966796875,36.89257034484652,-5.420257997339043,0.14118457041548993,57
1764361380.1515188,324,1.58203125,36.640391097219634,-6.287962052409328,-0.11099467721139433,58
1764361380.2532334,332,1.62109375,36.75600346682127,-3.974084572221903,0.004617692390240791,58
1764361380.354613,338,1.650390625,36.915002512560015,-2.2386764620813353,0.16361673812898658,58
1764361380.4563205,326,1.591796875,36.740261116343405,-5.709492682362471,-0.011124658087624084,59
1764361380.5583968,328,1.6015625,36.73877930466533,-5.131023312315616,-0.012606469765700012,61
1764361380.659382,333,1.6259765625,36.76075893326703,-3.6848498871984754,0.009373158835998652,62
1764361380.7606208,334,1.630859375,36.64535701326074,-3.395615202175047,-0.10602876117028615,63
1764361380.8620677,320,1.5625,36.83243795419084,-7.44490079250304,0.0810521797598085,64
1764361380.9638739,336,1.640625,36.76136794259065,-2.8171458321281913,0.009982168159623939,65
1764361381.0651605,327,1.5966796875,36.87024593022462,-5.420257997339043,0.1188601557935911,66
1764361381.166303,341,1.6650390625,36.724520891576056,-1.3709724070110514,-0.026864882854972905,68
1764361381.2676687,325,1.5869140625,36.95415944780742,-5.9987273673859,0.20277367337639163,69
1764361381.36911,327,1.5966796875,36.851567074653666,-5.420257997339043,0.10018130022263705,70
1764361381.4710252,332,1.62109375,36.67451563648169,-3.974084572221903,-0.07687013794933506,71
1764361381.5728686,327,1.5966796875,36.78940884279041,-5.420257997339043,0.03802306835937941,70
1764361381.6746442,321,1.5673828125,36.84239110375422,-7.155666107479611,0.09100532932318828,70
1764361381.7760732,321,1.5673828125,36.73788255128935,-7.155666107479611,-0.013503223141675846,70
1764361381.877295,326,1.591796875,36.93632774709611,-5.709492682362471,0.1849419726650794,70
1764361381.9785764,341,1.6650390625,36.84497156200534,-1.3709724070110514,0.09358578757431246,70
1764361382.0801902,323,1.5771484375,36.62883236218251,-6.577196737432756,-0.12255341224852145,70
1764361382.181707,325,1.5869140625,36.73338607095111,-5.9987273673859,-0.017999703479915752,69
1764361382.283231,336,1.640625,36.664093782068534,-2.8171458321281913,-0.08729199236249485,69
1764361382.38453,321,1.5673828125,36.72461179067994,-7.155666107479611,-0.026773983751091635,70
1764361382.486047,331,1.6162109375,36.66724560286258,-4.263319257245332,-0.08414017156844977,70
1764361382.587393,334,1.630859375,36.802497160749326,-3.395615202175047,0.051111386318297036,69
1764361382.6889937,327,1.5966796875,36.650282629408935,-5.420257997339043,-0.10110314502209405,69
1764361382.790287,336,1.640625,36.88370153364408,-2.8171458321281913,0.13231575921304994,69
1764361382.8915663,330,1.611328125,36.874409762310336,-4.5525539422687595,0.12302398787930713,69
1764361382.9929242,330,1.611328125,36.90583718422358,-4.5525539422687595,0.15445140979255,69
1764361383.0954463,333,1.6259765625,36.855013424497784,-3.6848498871984754,0.10362765006675545,70
1764361383.197033,329,1.6064453125,36.79773695219697,-4.841788627292187,0.046351177765942,70
1764361383.2986157,328,1.6015625,36.76881185178292,-5.131023312315616,0.01742607735189239,70
1764361383.4002821,329,1.6064453125,36.65890772529297,-4.841788627292187,-0.0924780491380588,71
1764361383.5018494,334,1.630859375,36.765709597607334,-3.395615202175047,0.014323823176304984,72
1764361383.6030858,336,1.640625,36.91564766500915,-2.8171458321281913,0.1642618905781248,72
1764361383.7055287,340,1.66015625,36.800008779672545,-1.6602070920344794,0.04862300524151664,73
1764361383.8070948,336,1.640625,36.59153797104908,-2.8171458321281913,-0.15984780338195037,73
1764361383.908522,329,1.6064453125,36.634262560565354,-4.841788627292187,-0.11712321386567481,73
1764361384.0095685,335,1.6357421875,36.69178311363201,-3.1063805171516194,-0.05960266079901544,73
1764361384.1113696,335,1.6357421875,36.60603993803902,-3.1063805171516194,-0.1453458363920106,73
1764361384.213329,333,1.6259765625,36.71646651499489,-3.6848498871984754,-0.03491925943613694,73
1764361384.3144722,336,1.640625,36.76334702385739,-2.8171458321281913,0.011961249426363452,73
1764361384.416082,340,1.66015625,36.77768810439132,-1.6602070920344794,0.026302329960294912,73
1764361384.5173419,337,1.6455078125,36.6939536883126,-2.5279111471047635,-0.05743208611843187,73
1764361384.6192784,339,1.6552734375,36.91299534696056,-1.9494417770579073,0.16160957252952812,73
1764361384.720934,336,1.640625,36.60537882557635,-2.8171458321281913,-0.14600694885467647,73
1764361384.8226144,323,1.5771484375,36.956490055881545,-6.577196737432756,0.20510428145051662,73
1764361384.9245477,327,1.5966796875,36.73154113119177,-5.420257997339043,-0.01984464323926005,72
1764361385.025618,329,1.6064453125,36.82338234624896,-4.841788627292187,0.07199657181793384,72
1764361385.1270993,330,1.611328125,36.60678423755851,-4.5525539422687595,-0.1446015368725213,72
1764361385.2283244,339,1.6552734375,36.94340218509234,-1.9494417770579073,0.19201641066131003,72
1764361385.329584,321,1.5673828125,36.756565010400585,-7.155666107479611,0.005179235969556828,72
1764361385.4313834,340,1.66015625,36.56876539506979,-1.6602070920344794,-0.18262037936123932,71
1764361385.5327938,334,1.630859375,36.59396203981472,-3.395615202175047,-0.15742373461630876,71
1764361385.6339695,332,1.62109375,36.69908640407323,-3.974084572221903,-0.05229937035780097,71
1764361385.7359219,326,1.591796875,36.76281300512941,-5.709492682362471,0.011427230698380697,70
1764361385.8382738,328,1.6015625,36.62592321916271,-5.131023312315616,-0.12546255526832084,70
1764361385.9396787,340,1.66015625,36.66683395655288,-1.6602070920344794,-0.08455181787815036,70
1764361386.040691,323,1.5771484375,36.70834304975436,-6.577196737432756,-0.04304272467666692,70
1764361386.1418383,327,1.5966796875,36.71168915242619,-5.420257997339043,-0.03969662200483981,71
1764361386.2432876,329,1.6064453125,36.56093039536927,-4.841788627292187,-0.1904553790617598,70
1764361386.344897,328,1.6015625,36.720721113638625,-5.131023312315616,-0.03066466079240371,70
1764361386.4466765,332,1.62109375,36.8401024639771,-3.974084572221903,0.08871668954606804,70
1764361386.548207,323,1.5771484375,36.72593133555099,-6.577196737432756,-0.02545443888003973,70
1764361386.649805,327,1.5966796875,36.668590464217225,-5.420257997339043,-0.08279531021380393,69
1764361386.7523024,323,1.5771484375,36.854102966729805,-6.577196737432756,0.10271719229877618,70
1764361386.854031,329,1.6064453125,36.86463175930637,-4.841788627292187,0.11324598487534132,70
1764361386.955672,332,1.62109375,36.647980947731575,-3.974084572221903,-0.10340482669945317,70
1764361387.0569904,327,1.5966796875,36.76775199181954,-5.420257997339043,0.01636621738850863,71
1764361387.1583645,331,1.6162109375,36.848740100989865,-4.263319257245332,0.09735432655883614,71
1764361387.2594903,340,1.66015625,36.887501226733484,-1.6602070920344794,0.13611545230245525,71
1764361387.361121,332,1.62109375,36.73627648219292,-3.974084572221903,-0.015109292238108196,70
1764361387.462628,325,1.5869140625,36.70877133382852,-5.9987273673859,-0.042614440602505965,69
1764361387.5640163,321,1.5673828125,36.8451869989527,-7.155666107479611,0.09380122452166972,69
1764361387.665498,323,1.5771484375,36.61648697701228,-6.577196737432756,-0.13489879741874944,68
1764361387.7673774,328,1.6015625,36.94566923803986,-5.131023312315616,0.19428346360883353,67
1764361387.8694327,322,1.572265625,36.581577559231924,-6.866431422456183,-0.1698082151991045,67
1764361387.9718137,324,1.58203125,36.8540872963987,-6.287962052409328,0.10270152196767413,68
1764361388.072942,341,1.6650390625,36.87073099232825,-1.3709724070110514,0.11934521789721941,68
1764361388.1744103,333,1.6259765625,36.60505703765551,-3.6848498871984754,-0.14632873677551572,69
1764361388.2758062,329,1.6064453125,36.88720162755211,-4.841788627292187,0.13581585312108047,69
1764361388.3770437,337,1.6455078125,36.84460630771412,-2.5279111471047635,0.09322053328309465,69
1764361388.478439,339,1.6552734375,36.92790674586981,-1.9494417770579073,0.17652097143878365,68
1764361388.5796027,324,1.58203125,36.84262841000329,-6.287962052409328,0.09124263557226442,69
1764361388.6807265,337,1.6455078125,36.942728914708454,-2.5279111471047635,0.19134314027742505,70
1764361388.7823217,333,1.6259765625,36.901870615558565,-3.6848498871984754,0.15048484112753613,72
1764361388.884469,326,1.591796875,36.89193657907892,-5.709492682362471,0.14055080464789427,74
1764361388.9860718,334,1.630859375,36.653804970680184,-3.395615202175047,-0.09758080375084432,75
1764361389.087473,332,1.62109375,36.87786925985354,-3.974084572221903,0.12648348542251142,74
1764361389.188416,339,1.6552734375,36.87537769669123,-1.9494417770579073,0.12399192226020261,75
1764361389.289773,332,1.62109375,36.711277153098486,-3.974084572221903,-0.04010862133254278,73
1764361389.3910542,337,1.6455078125,36.57428871682242,-2.5279111471047635,-0.17709705760860572,72
1764361389.4923916,330,1.611328125,36.769231713483485,-4.5525539422687595,0.017845939052456572,70
1764361389.5941005,334,1.630859375,36.89317515779243,-3.395615202175047,0.1417893833613988,69
1764361389.6955826,324,1.58203125,36.7517625632576,-6.287962052409328,0.00037678882657132817,67
1764361389.7971928,322,1.572265625,36.88409053783688,-6.866431422456183,0.13270476340585446,66
1764361389.8984528,327,1.5966796875,36.9283605869032,-5.420257997339043,0.1769748124721744,66
1764361390.000489,322,1.572265625,36.92850527632933,-6.866431422456183,0.1771195018983036,67
1764361390.1019206,340,1.66015625,36.84828145546919,-1.6602070920344794,0.0968956810381627,68
1764361390.2035868,328,1.6015625,36.91422253826883,-5.131023312315616,0.16283676383780232,68
1764361390.3048968,323,1.5771484375,36.792346308873334,-6.577196737432756,0.04096053444230563,68
1764361390.4061656,322,1.572265625,36.834164874382196,-6.866431422456183,0.08277909995116772,68
1764361390.507715,324,1.58203125,36.79216056235057,-6.287962052409328,0.04077478791953837,68
1764361390.6092925,325,1.5869140625,36.84418492254261,-5.9987273673859,0.09279914811158108,68
1764361390.710818,333,1.6259765625,36.78806218071792,-3.6848498871984754,0.03667640628689384,68
1764361390.812291,324,1.58203125,36.74530271282411,-6.287962052409328,-0.0060830616069154075,68
1764361390.9138186,330,1.611328125,36.62373406559113,-4.5525539422687595,-0.12765170883989896,68
1764361391.0156953,330,1.611328125,36.622790103785775,-4.5525539422687595,-0.1285956706452538,66
1764361391.1183329,336,1.640625,36.861275071843494,-2.8171458321281913,0.10988929741246523,65
1764361391.2199497,336,1.640625,36.75484018309314,-2.8171458321281913,0.0034544086621082215,65
1764361391.3211174,325,1.5869140625,36.7156976424615,-5.9987273673859,-0.035688131969529024,65
1764361391.4226298,321,1.5673828125,36.7785302208762,-7.155666107479611,0.027144446445170445,64
1764361391.5237665,335,1.6357421875,36.895520972959325,-3.1063805171516194,0.14413519852829637,65
1764361391.6251884,336,1.640625,36.79070986055394,-2.8171458321281913,0.03932408612291027,66
1764361391.7267685,334,1.630859375,36.58765715635131,-3.395615202175047,-0.16372861807971617,65
1764361391.8286526,328,1.6015625,36.78768367118592,-5.131023312315616,0.03629789675488837,64
1764361391.9304755,338,1.650390625,36.597061906998256,-2.2386764620813353,-0.1543238674327725,62
1764361392.0323439,339,1.6552734375,36.628892971361154,-1.9494417770579073,-0.12249280306987487,62
1764361392.133802,335,1.6357421875,36.6935976612536,-3.1063805171516194,-0.05778811317743049,62
1764361392.2353816,330,1.611328125,36.66374063553519,-4.5525539422687595,-0.08764513889583725,63
1764361392.3369014,336,1.640625,36.67712870151108,-2.8171458321281913,-0.07425707291994854,63
1764361392.438223,327,1.5966796875,36.72633811059045,-5.420257997339043,-0.025047663840581436,63
1764361392.5398667,329,1.6064453125,36.85764628200906,-4.841788627292187,0.1062605075780283,61
1764361392.641234,332,1.62109375,36.81778900813102,-3.974084572221903,0.06640323369999379,61
1764361392.7426386,325,1.5869140625,36.58681753747799,-5.9987273673859,-0.16456823695303768,61
1764361392.8436246,324,1.58203125,36.78217118736758,-6.287962052409328,0.030785412936552348,63
1764361392.9449482,321,1.5673828125,36.838256660249094,-7.155666107479611,0.08687088581806535,64
1764361393.0464065,336,1.640625,36.578444751055684,-2.8171458321281913,-0.17294102337534412,65
1764361393.1481912,322,1.572265625,36.63395057133471,-6.866431422456183,-0.1174352030963206,65
1764361393.2501516,328,1.6015625,36.851883639178716,-5.131023312315616,0.10049786474768752,65
1764361393.351746,339,1.6552734375,36.75622761815247,-1.9494417770579073,0.004841843721443695,65
1764361393.4528234,334,1.630859375,36.7067541851613,-3.395615202175047,-0.0446315892697271,63
1764361393.5544648,336,1.640625,36.862596375793395,-2.8171458321281913,0.11121060136236594,61
1764361393.656156,336,1.640625,36.842216100652216,-2.8171458321281913,0.09083032622118736,60
1764361393.7577229,334,1.630859375,36.643837933991655,-3.395615202175047,-0.10754784043937349,59
1764361393.8590777,338,1.650390625,36.67826320870567,-2.2386764620813353,-0.07312256572535603,58
1764361393.9604669,338,1.650390625,36.73753548764409,-2.2386764620813353,-0.013850286786940558,59
1764361394.061745,335,1.6357421875,36.63268859166455,-3.1063805171516194,-0.118697182766482,60
1764361394.163904,334,1.630859375,36.727753274322566,-3.395615202175047,-0.023632500108462295,61
1764361394.266926,340,1.66015625,36.810329828275506,-1.6602070920344794,0.05894405384447765,61
1764361394.379163,322,1.572265625,36.7953892707993,-6.866431422456183,0.04400349636826917,61
1764361394.487651,332,1.62109375,36.80394662959642,-3.974084572221903,0.05256085516538889,60
1764361394.5892684,335,1.6357421875,36.702516742284914,-3.1063805171516194,-0.04886903214611493,59
1764361394.6903205,321,1.5673828125,36.91187860211141,-7.155666107479611,0.16049282768037898,59
1764361394.791481,322,1.572265625,36.856217047564236,-6.866431422456183,0.1048312731332075,59
1764361394.892666,323,1.5771484375,36.861526068735905,-6.577196737432756,0.11014029430487682,59
1764361394.9941049,337,1.6455078125,36.73522143630682,-2.5279111471047635,-0.016164338124205813,59
1764361395.0952792,330,1.611328125,36.80340038080576,-4.5525539422687595,0.05201460637473332,61
1764361395.1975102,337,1.6455078125,36.71949993733846,-2.5279111471047635,-0.03188583709256676,61
1764361395.2993014,337,1.6455078125,36.74734307066291,-2.5279111471047635,-0.004042703768121214,60
1764361395.400612,324,1.58203125,36.953184274361185,-6.287962052409328,0.20179849993015608,60
1764361395.50179,328,1.6015625,36.86014490703748,-5.131023312315616,0.1087591326064512,59
1764361395.602794,327,1.5966796875,36.709268831962476,-5.420257997339043,-0.04211694246855302,59
1764361395.703904,327,1.5966796875,36.79892933294154,-5.420257997339043,0.04754355851051173,58
1764361395.8052387,336,1.640625,36.91243381693032,-2.8171458321281913,0.1610480424992886,58
1764361395.9066172,326,1.591796875,36.80110529903845,-5.709492682362471,0.049719524607418464,59
1764361396.0083623,335,1.6357421875,36.747729762807474,-3.1063805171516194,-0.003656011623554889,60
1764361396.110018,327,1.5966796875,36.85382839946965,-5.420257997339043,0.1024426250386199,61
1764361396.2121632,334,1.630859375,36.57277150675079,-3.395615202175047,-0.17861426768023847,62
1764361396.3140469,337,1.6455078125,36.81591432263285,-2.5279111471047635,0.06452854820182097,63
1764361396.415534,331,1.6162109375,36.92926139148687,-4.263319257245332,0.17787561705583954,63
1764361396.516748,331,1.6162109375,36.588750555534205,-4.263319257245332,-0.16263521889682409,62
1764361396.6179283,337,1.6455078125,36.812912653496824,-2.5279111471047635,0.061526879065795015,62
1764361396.7193902,330,1.611328125,36.622696148312805,-4.5525539422687595,-0.12868962611822354,61
1764361396.8207505,328,1.6015625,36.70670806477822,-5.131023312315616,-0.04467770965280948,60
1764361396.9219148,340,1.66015625,36.87021840107057,-1.6602070920344794,0.11883262663953786,60
1764361397.0232692,322,1.572265625,36.78382065302374,-6.866431422456183,0.03243487859270999,61
1764361397.1244793,323,1.5771484375,36.91066759678984,-6.577196737432756,0.15928182235881394,61
1764361397.2257054,333,1.6259765625,36.85250540973305,-3.6848498871984754,0.10111963530201962,62
1764361397.3269355,329,1.6064453125,36.628453399553635,-4.841788627292187,-0.12293237487739361,62
1764361397.4287348,327,1.5966796875,36.872548982141815,-5.420257997339043,0.12116320771078648,62
1764361397.5304859,321,1.5673828125,36.72315083798843,-7.155666107479611,-0.02823493644260111,62
1764361397.6325974,324,1.58203125,36.88089712663348,-6.287962052409328,0.12951135220244936,62
1764361397.7340984,339,1.6552734375,36.90664299799766,-1.9494417770579073,0.15525722356662897,62
1764361397.8352704,334,1.630859375,36.86492895295212,-3.395615202175047,0.11354317852109119,62
1764361397.9365556,336,1.640625,36.93938405493883,-2.8171458321281913,0.18799828050779865,62
1764361398.03773,337,1.6455078125,36.56635661862541,-2.5279111471047635,-0.18502915580561563,62
1764361398.139264,321,1.5673828125,36.61858872578606,-7.155666107479611,-0.13279704864496722,63
1764361398.240594,327,1.5966796875,36.84788872467831,-5.420257997339043,0.0965029502472845,64
1764361398.341738,327,1.5966796875,36.73606924941497,-5.420257997339043,-0.015316525016061178,64
1764361398.443389,333,1.6259765625,36.83889562357926,-3.6848498871984754,0.08750984914823334,65
1764361398.5460837,328,1.6015625,36.88565551881033,-5.131023312315616,0.13426974437930284,65
1764361398.6484292,338,1.650390625,36.78317713861864,-2.2386764620813353,0.03179136418761175,65
1764361398.7497141,325,1.5869140625,36.61607589617256,-5.9987273673859,-0.13530987825846807,64
1764361398.8510206,332,1.62109375,36.917554301285456,-3.974084572221903,0.1661685268544275,64
1764361398.9525788,322,1.572265625,36.7587295095486,-6.866431422456183,0.007343735117572692,64
1764361399.0539594,332,1.62109375,36.597793743625616,-3.974084572221903,-0.15359203080541306,64
1764361399.155505,335,1.6357421875,36.748555518031424,-3.1063805171516194,-0.002830256399604991,64
1764361399.2572646,323,1.5771484375,36.6519461623769,-6.577196737432756,-0.09943961205412677,64
1764361399.3587813,332,1.62109375,36.958401311764476,-3.974084572221903,0.20701553733344724,65
1764361399.4602938,324,1.58203125,36.76176479259095,-6.287962052409328,0.010379018159923703,65
1764361399.5622065,337,1.6455078125,36.88438310686513,-2.5279111471047635,0.13299733243410117,64
1764361399.663682,325,1.5869140625,36.89624568063601,-5.9987273673859,0.14485990620497802,64
1764361399.7650392,327,1.5966796875,36.90470728596599,-5.420257997339043,0.15332151153496199,64
1764361399.8659835,339,1.6552734375,36.586976100973146,-1.9494417770579073,-0.16440967345788238,64
1764361399.9672306,328,1.6015625,36.9410801926378,-5.131023312315616,0.1896944182067699,64
1764361400.0687683,325,1.5869140625,36.68412125709727,-5.9987273673859,-0.06726451733376138,63
1764361400.170352,325,1.5869140625,36.67064660262797,-5.9987273673859,-0.08073917180306012,63
1764361400.27184,321,1.5673828125,36.854819099027296,-7.155666107479611,0.10343332459626708,63
1764361400.373056,332,1.62109375,36.69141569342892,-3.974084572221903,-0.05997008100210621,62
1764361400.4742618,330,1.611328125,36.597337978778576,-4.5525539422687595,-0.15404779565245263,62
1764361400.575529,331,1.6162109375,36.660812569621584,-4.263319257245332,-0.09057320480944497,62
1764361400.6777303,322,1.572265625,36.62056793803217,-6.866431422456183,-0.1308178363988617,62
1764361400.7796757,323,1.5771484375,36.65479939012315,-6.577196737432756,-0.09658638430787647,62
1764361400.880992,335,1.6357421875,36.67859582940113,-3.1063805171516194,-0.07278994502989633,62
1764361400.9825394,339,1.6552734375,36.70433441809157,-1.9494417770579073,-0.047051356339459005,62
1764361401.08404,336,1.640625,36.622366492973306,-2.8171458321281913,-0.12901928145772246,62
1764361401.1851752,327,1.5966796875,36.907807941208816,-5.420257997339043,0.1564221667777872,62
1764361401.286853,329,1.6064453125,36.89221575808035,-4.841788627292187,0.14082998364931854,62
1764361401.388591,324,1.58203125,36.85628969032879,-6.287962052409328,0.10490391589776493,61
1764361401.489698,321,1.5673828125,36.797686233686655,-7.155666107479611,0.04630045925562598,61
1764361401.5908127,322,1.572265625,36.831550570886414,-6.866431422456183,0.0801647964553851,61
1764361401.6921065,341,1.6650390625,36.61718143832471,-1.3709724070110514,-0.13420433610632188,61
1764361401.794058,328,1.6015625,36.741505978076056,-5.131023312315616,-0.009879796354972825,61
1764361401.895473,340,1.66015625,36.74991859857767,-1.6602070920344794,-0.0014671758533566504,62
1764361401.9970224,322,1.572265625,36.66552427083381,-6.866431422456183,-0.08586150359722211,62
1764361402.0983975,334,1.630859375,36.640899436604634,-3.395615202175047,-0.11048633782639428,63
1764361402.199809,333,1.6259765625,36.910462261870656,-3.6848498871984754,0.1590764874396271,64
1764361402.3015158,332,1.62109375,36.749375711391835,-3.974084572221903,-0.00201006303919371,64
1764361402.4035082,339,1.6552734375,36.63223831903894,-1.9494417770579073,-0.11914745539208837,65
1764361402.504836,331,1.6162109375,36.88990941533161,-4.263319257245332,0.1385236409005799,65
1764361402.6059182,324,1.58203125,36.75046387818183,-6.287962052409328,-0.0009218962491956972,66
1764361402.7073486,339,1.6552734375,36.60147745737298,-1.9494417770579073,-0.14990831705804908,66
1764361402.8095496,329,1.6064453125,36.70184770861851,-4.841788627292187,-0.04953806581251996,66
1764361402.911381,333,1.6259765625,36.90228429899907,-3.6848498871984754,0.1508985245680421,66
1764361403.0128288,332,1.62109375,36.94472100161855,-3.974084572221903,0.19333522718751794,66
1764361403.1140878,340,1.66015625,36.82587962980353,-1.6602070920344794,0.07449385537250208,66
1764361403.2150629,331,1.6162109375,36.953282216951045,-4.263319257245332,0.2018964425200167,66
1764361403.3167107,323,1.5771484375,36.871745824600715,-6.577196737432756,0.12036005016968687,67
1764361403.4179776,325,1.5869140625,36.69212137507645,-5.9987273673859,-0.059264399354582054,68
1764361403.519167,321,1.5673828125,36.68032037568159,-7.155666107479611,-0.07106539874943962,69
1764361403.6208365,332,1.62109375,36.586484885910686,-3.974084572221903,-0.1649008885203429,69
1764361403.7221866,327,1.5966796875,36.94350257547264,-5.420257997339043,0.19211680104161388,69
1764361403.823678,328,1.6015625,36.66478217707547,-5.131023312315616,-0.08660359735555545,69
1764361403.9256728,325,1.5869140625,36.795242684716236,-5.9987273673859,0.04385691028520711,69
1764361404.0275536,328,1.6015625,36.8187814523492,-5.131023312315616,0.0673956779181708,68
1764361404.1290793,327,1.5966796875,36.708508638342295,-5.420257997339043,-0.04287713608873389,68
1764361404.2300699,330,1.611328125,36.71194410462609,-4.5525539422687595,-0.03944166980493691,68
1764361404.3313844,322,1.572265625,36.77893208864422,-6.866431422456183,0.02754631421318976,68
1764361404.4326782,332,1.62109375,36.782330755161205,-3.974084572221903,0.03094498073017604,68
1764361404.5340512,333,1.6259765625,36.91736906538868,-3.6848498871984754,0.16598329095764797,68
1764361404.6353676,340,1.66015625,36.72360788882203,-1.6602070920344794,-0.027777885608998076,67
1764361404.7368662,330,1.611328125,36.67618224278849,-4.5525539422687595,-0.07520353164253635,66
1764361404.8384526,339,1.6552734375,36.62898003503042,-1.9494417770579073,-0.12240573940060528,65
1764361404.9403672,331,1.6162109375,36.633578934784914,-4.263319257245332,-0.11780683964611427,64
1764361405.0425904,336,1.640625,36.63191959449315,-2.8171458321281913,-0.11946617993788067,64
1764361405.1436932,336,1.640625,36.90770668214656,-2.8171458321281913,0.1563209077155321,63
1764361405.2449903,325,1.5869140625,36.822369537751605,-5.9987273673859,0.07098376332057654,64
1764361405.3463786,335,1.6357421875,36.86538166255633,-3.1063805171516194,0.11399588812530226,64
1764361405.4475682,336,1.640625,36.79523835734582,-2.8171458321281913,0.04385258291479488,65
1764361405.5492766,333,1.6259765625,36.60564886349748,-3.6848498871984754,-0.14573691093355023,65
1764361405.6507,334,1.630859375,36.77210319318313,-3.395615202175047,0.020717418752099093,66
1764361405.75185,331,1.6162109375,36.70614594448846,-4.263319257245332,-0.0452398299425667,66
1764361405.8537035,321,1.5673828125,36.74464941607635,-7.155666107479611,-0.006736358354679339,66
1764361405.9550967,331,1.6162109375,36.937325370261064,-4.263319257245332,0.1859395958300354,66
1764361406.0563798,335,1.6357421875,36.84853002188027,-3.1063805171516194,0.09714424744924344,66
1764361406.1582909,340,1.66015625,36.66536657927381,-1.6602070920344794,-0.08601919515722045,66
1764361406.259928,328,1.6015625,36.86795193225689,-5.131023312315616,0.11656615782585789,66
1764361406.3611166,327,1.5966796875,36.61209219015889,-5.420257997339043,-0.13929358427213856,66
1764361406.462424,329,1.6064453125,36.74005993188748,-4.841788627292187,-0.011325842543548958,66
1764361406.5635033,322,1.572265625,36.70745630957428,-6.866431422456183,-0.043929464856745426,66
1764361406.665004,331,1.6162109375,36.60619241590641,-4.263319257245332,-0.14519335852461523,66
1764361406.7664664,334,1.630859375,36.713396731763424,-3.395615202175047,-0.03798904266760417,65
1764361406.8676624,321,1.5673828125,36.827899761927746,-7.155666107479611,0.07651398749671756,66
1764361406.968928,338,1.650390625,36.88859434232876,-2.2386764620813353,0.13720856789772995,66
1764361407.0703855,341,1.6650390625,36.600072263831414,-1.3709724070110514,-0.15131351059961418,66
1764361407.172055,332,1.62109375,36.76981191976556,-3.974084572221903,0.01842614533453002,66
1764361407.2742805,323,1.5771484375,36.645680263865835,-6.577196737432756,-0.10570551056519406,66
1764361407.3762407,336,1.640625,36.89980472562744,-2.8171458321281913,0.1484189511964118,66
1764361407.4775445,333,1.6259765625,36.70813998535992,-3.6848498871984754,-0.043245789071107765,65
1764361407.5786047,321,1.5673828125,36.79884686812619,-7.155666107479611,0.04746109369516205,65
1764361407.6796682,332,1.62109375,36.583864050810476,-3.974084572221903,-0.16752172362055262,65
1764361407.781247,339,1.6552734375,36.61001327889588,-1.9494417770579073,-0.1413724955351512,65
1764361407.883018,327,1.5966796875,36.95701123357603,-5.420257997339043,0.20562545914500419,66
1764361407.9843407,337,1.6455078125,36.580526284524495,-2.5279111471047635,-0.1708594899065332,66
1764361408.0857346,330,1.611328125,36.893543302857765,-4.5525539422687595,0.14215752842673623,66
1764361408.186963,325,1.5869140625,36.958781059113605,-5.9987273673859,0.20739528468257618,67
1764361408.288508,335,1.6357421875,36.92993193579558,-3.1063805171516194,0.17854616136455093,67
1764361408.3901262,340,1.66015625,36.87451589809329,-1.6602070920344794,0.12313012366226417,66
1764361408.4922805,329,1.6064453125,36.63957645440461,-4.841788627292187,-0.11180932002641697,67
1764361408.5934083,324,1.58203125,36.59787874030266,-6.287962052409328,-0.15350703412836708,67
1764361408.6945386,333,1.6259765625,36.586371890632705,-3.6848498871984754,-0.1650138837983235,68
1764361408.7964575,330,1.611328125,36.88072002012807,-4.5525539422687595,0.1293342456970379,69
1764361408.8978357,325,1.5869140625,36.81917157607771,-5.9987273673859,0.06778580164667858,71
1764361408.9997542,325,1.5869140625,36.58676614278641,-5.9987273673859,-0.16461963164461935,71
1764361409.1008968,334,1.630859375,36.946041270730454,-3.395615202175047,0.19465549629942558,72
1764361409.2025008,320,1.5625,36.64490879852139,-7.44490079250304,-0.10647697590963645,72
1764361409.3037593,335,1.6357421875,36.787366390665305,-3.1063805171516194,0.0359806162342764,72
1764361409.406706,333,1.6259765625,36.7576300906819,-3.6848498871984754,0.006244316250871407,72
1764361409.5080755,329,1.6064453125,36.81358526927871,-4.841788627292187,0.0621994948476825,71
1764361409.6098228,323,1.5771484375,36.633485278672424,-6.577196737432756,-0.1179004957586045,71
1764361409.711051,338,1.650390625,36.66491954132921,-2.2386764620813353,-0.08646623310181667,71
1764361409.812182,338,1.650390625,36.808910253583036,-2.2386764620813353,0.05752447915200776,70
1764361409.9133518,324,1.58203125,36.91391127119758,-6.287962052409328,0.16252549676654837,72
1764361410.0144653,332,1.62109375,36.83579979440733,-3.974084572221903,0.08441401997630038,73
1764361410.1160932,334,1.630859375,36.79557059962467,-3.395615202175047,0.0441848251936392,74
1764361410.2176604,340,1.66015625,36.64809051175399,-1.6602070920344794,-0.1032952626770367,75
1764361410.3191288,335,1.6357421875,36.9570493875272,-3.1063805171516194,0.20566361309617065,75
1764361410.4214854,339,1.6552734375,36.7542028839436,-1.9494417770579073,0.0028171095125699708,75
1764361410.5229723,331,1.6162109375,36.62960150605097,-4.263319257245332,-0.12178426838006118,74
1764361410.6241634,326,1.591796875,36.83138437749621,-5.709492682362471,0.07999860306517803,73
1764361410.7251496,341,1.6650390625,36.86977580697015,-1.3709724070110514,0.11839003253911784,72
1764361410.8262444,320,1.5625,36.7809197509588,-7.44490079250304,0.02953397652777312,73
1764361410.9274244,336,1.640625,36.837146369063184,-2.8171458321281913,0.08576059463215557,73
1764361411.0290134,329,1.6064453125,36.7343369072326,-4.841788627292187,-0.01704886719842591,73
1764361411.130207,338,1.650390625,36.68280053412513,-2.2386764620813353,-0.06858524030590019,74
1764361411.2312803,327,1.5966796875,36.76701233725035,-5.420257997339043,0.015626562819321066,74
1764361411.332453,334,1.630859375,36.80812888317847,-3.395615202175047,0.056743108747440374,74
1764361411.4340472,336,1.640625,36.91131800060095,-2.8171458321281913,0.15993222616992142,74
1764361411.5353165,323,1.5771484375,36.89640106136158,-6.577196737432756,0.1450152869305512,74
1764361411.6374953,325,1.5869140625,36.88786238549712,-5.9987273673859,0.13647661106609377,74
1764361411.7395816,339,1.6552734375,36.66614508751877,-1.9494417770579073,-0.0852406869122575,72
1764361411.8411894,323,1.5771484375,36.63739155428138,-6.577196737432756,-0.11399422014964955,71
1764361411.9427557,323,1.5771484375,36.90612009370639,-6.577196737432756,0.15473431927536296,70
1764361412.0439372,327,1.5966796875,36.56233744726127,-5.420257997339043,-0.1890483271697576,70
1764361412.1453936,335,1.6357421875,36.866142613891114,-3.1063805171516194,0.1147568394600853,69
1764361412.246546,331,1.6162109375,36.73164236117862,-4.263319257245332,-0.019743413252406583,70
1764361412.3481011,337,1.6455078125,36.90648316391805,-2.5279111471047635,0.15509738948701823,71
1764361412.4500709,339,1.6552734375,36.888594518035966,-1.9494417770579073,0.13720874360493696,71
1764361412.5515563,326,1.591796875,36.782615792993184,-5.709492682362471,0.031230018562155237,71
1764361412.6555371,330,1.611328125,36.56725159854603,-4.5525539422687595,-0.18413417588499925,71
1764361412.7571642,340,1.66015625,36.775903804832126,-1.6602070920344794,0.024518030401097235,71
1764361412.8586748,325,1.5869140625,36.61541725099477,-5.9987273673859,-0.13596852343626153,71
1764361412.9601603,322,1.572265625,36.80536667478317,-6.866431422456183,0.05398090035214409,70
1764361413.0617547,326,1.591796875,36.8089846249504,-5.709492682362471,0.057598850519369194,70
1764361413.163611,322,1.572265625,36.9178681917302,-6.866431422456183,0.16648241729917146,71
1764361413.2648938,322,1.572265625,36.60701470899,-6.866431422456183,-0.14437106544102818,71
1764361413.3660142,327,1.5966796875,36.80618152678216,-5.420257997339043,0.054795752351132876,72
1764361413.4675047,332,1.62109375,36.9137182007227,-3.974084572221903,0.16233242629166966,73
1764361413.5696015,334,1.630859375,36.63472700765468,-3.395615202175047,-0.11665876677634657,75
1764361413.6712356,338,1.650390625,36.94789028105477,-2.2386764620813353,0.19650450662373942,75
1764361413.7725427,335,1.6357421875,36.75586030077561,-3.1063805171516194,0.004474526344580454,74
1764361413.8737674,330,1.611328125,36.933432464246145,-4.5525539422687595,0.18204668981511674,74
1764361413.974854,337,1.6455078125,36.71832012796176,-2.5279111471047635,-0.03306564646926802,74
1764361414.076098,325,1.5869140625,36.625045647890104,-5.9987273673859,-0.1263401265409243,74
1764361414.177247,336,1.640625,36.608192628462774,-2.8171458321281913,-0.1431931459682545,74
1764361414.2785563,334,1.630859375,36.8089949212836,-3.395615202175047,0.05760914685257035,72
1764361414.3798337,323,1.5771484375,36.86213213237788,-6.577196737432756,0.1107463579468515,71
1764361414.4810097,332,1.62109375,36.62120557786553,-3.974084572221903,-0.1301801965654974,70
1764361414.5826612,338,1.650390625,36.62266510776682,-2.2386764620813353,-0.12872066666420778,68
1764361414.68423,328,1.6015625,36.87530656809504,-5.131023312315616,0.12392079366401276,67
1764361414.7862532,324,1.58203125,36.659310659814565,-6.287962052409328,-0.09207511461646334,69
1764361414.888077,337,1.6455078125,36.77897398130236,-2.5279111471047635,0.02758820687132868,69
1764361414.9895935,338,1.650390625,36.61670903041042,-2.2386764620813353,-0.13467674402060936,68
1764361415.0908642,336,1.640625,36.91006132763785,-2.8171458321281913,0.1586755532068196,68
1764361415.1921234,337,1.6455078125,36.93964600284351,-2.5279111471047635,0.18826022841248147,68
1764361415.2933762,335,1.6357421875,36.82225339322266,-3.1063805171516194,0.07086761879163106,66
1764361415.3945975,337,1.6455078125,36.78578641072484,-2.5279111471047635,0.034400636293810294,66
1764361415.4959009,320,1.5625,36.724807058090036,-7.44490079250304,-0.026578716340992514,66
1764361415.5976746,333,1.6259765625,36.753310763042755,-3.6848498871984754,0.0019249886117265191,65
1764361415.6993117,337,1.6455078125,36.959800886849514,-2.5279111471047635,0.20841511241848565,65
1764361415.8013284,335,1.6357421875,36.94834302560052,-3.1063805171516194,0.19695725116949347,64
1764361415.9029777,337,1.6455078125,36.92392258457753,-2.5279111471047635,0.17253681014650368,64
1764361416.0041037,335,1.6357421875,36.738823306647234,-3.1063805171516194,-0.012562467783794773,64
1764361416.105273,331,1.6162109375,36.79217627991358,-4.263319257245332,0.040790505482554806,64
1764361416.206474,325,1.5869140625,36.91258437754204,-5.9987273673859,0.16119860311101064,63
1764361416.307659,338,1.650390625,36.829812346543704,-2.2386764620813353,0.07842657211267579,63
1764361416.4297867,329,1.6064453125,36.62626786384032,-4.841788627292187,-0.12511791059070987,63
1764361416.531353,330,1.611328125,36.795187173725125,-4.5525539422687595,0.043801399294096655,63
1764361416.6326349,337,1.6455078125,36.67120341050407,-2.5279111471047635,-0.08018236392695854,64
1764361416.7346966,332,1.62109375,36.86806767844335,-3.974084572221903,0.11668190401232437,63
1764361416.8364499,338,1.650390625,36.73467467937159,-2.2386764620813353,-0.016711095059442016,63
1764361416.9381196,340,1.66015625,36.91251682653653,-1.6602070920344794,0.16113105210550316,61
1764361417.0391383,336,1.640625,36.84065294563017,-2.8171458321281913,0.08926717119913974,61
1764361417.140594,330,1.611328125,36.5691237125989,-4.5525539422687595,-0.18226206183212668,61
1764361417.241928,321,1.5673828125,36.58819368897569,-7.155666107479611,-0.1631920854553357,62
1764361417.3433034,329,1.6064453125,36.94586686032378,-4.841788627292187,0.19448108589275392,64
1764361417.4448771,328,1.6015625,36.61329032210549,-5.131023312315616,-0.13809545232553688,65
1764361417.5465157,328,1.6015625,36.681792053475185,-5.131023312315616,-0.06959372095584371,66
1764361417.6476493,332,1.62109375,36.65107206163141,-3.974084572221903,-0.10031371279961832,66
1764361417.7501574,331,1.6162109375,36.561585986316196,-4.263319257245332,-0.18979978811483278,66
1764361417.852385,332,1.62109375,36.598115850608124,-3.974084572221903,-0.15326992382290427,66
1764361417.9543688,332,1.62109375,36.92459616204808,-3.974084572221903,0.1732103876170541,65
1764361418.0557003,335,1.6357421875,36.88603054943532,-3.1063805171516194,0.13464477500428984,65
1764361418.1572304,324,1.58203125,36.57003335284934,-6.287962052409328,-0.18135242158168552,64
1764361418.258345,326,1.591796875,36.939127160805874,-5.709492682362471,0.18774138637484583,63
1764361418.359797,332,1.62109375,36.949496500379695,-3.974084572221903,0.1981107259486663,63
1764361418.4610894,335,1.6357421875,36.623330159739766,-3.1063805171516194,-0.12805561469126303,63
1764361418.5623941,333,1.6259765625,36.64016341197354,-3.6848498871984754,-0.11122236245748951,63
1764361418.6636934,322,1.572265625,36.92374174629394,-6.866431422456183,0.1723559718629133,63
1764361418.766206,324,1.58203125,36.93140719745304,-6.287962052409328,0.18002142302201207,63
1764361418.8676894,326,1.591796875,36.590856384034375,-5.709492682362471,-0.16052939039665404,64
1764361418.9690504,330,1.611328125,36.72159887044071,-4.5525539422687595,-0.029786903990320468,64
1764361419.0705051,338,1.650390625,36.950077083144954,-2.2386764620813353,0.1986913087139257,64
1764361419.171406,338,1.650390625,36.634079058632075,-2.2386764620813353,-0.11730671579895358,64
1764361419.2725492,335,1.6357421875,36.65055603317301,-3.1063805171516194,-0.10082974125801769,65
1764361419.3736458,337,1.6455078125,36.58984994025503,-2.5279111471047635,-0.16153583417600004,64
1764361419.4752724,338,1.650390625,36.64692669030225,-2.2386764620813353,-0.10445908412877714,64
1764361419.5770295,328,1.6015625,36.84886417070807,-5.131023312315616,0.09747839627704025,64
1764361419.6783693,335,1.6357421875,36.87575226543839,-3.1063805171516194,0.12436649100736474,65
1764361419.7798638,336,1.640625,36.68158143694064,-2.8171458321281913,-0.06980433749038895,65
1764361419.882162,332,1.62109375,36.70836304102787,-3.974084572221903,-0.043022733403155655,65
1764361419.9842203,327,1.5966796875,36.830996276504,-5.420257997339043,0.07961050207297404,66
1764361420.0854888,332,1.62109375,36.698636960689846,-3.974084572221903,-0.05274881374118223,66
1764361420.1864998,323,1.5771484375,36.95987281838559,-6.577196737432756,0.20848704395456252,67
1764361420.2884507,336,1.640625,36.69979503353629,-2.8171458321281913,-0.051590740894738474,66
1764361420.3895078,323,1.5771484375,36.630818053829564,-6.577196737432756,-0.12056772060146415,64
1764361420.4911053,334,1.630859375,36.93953864328013,-3.395615202175047,0.18815286884910165,63
1764361420.592331,329,1.6064453125,36.60577139648052,-4.841788627292187,-0.14561437795050836,62
1764361420.694495,335,1.6357421875,36.601926757412635,-3.1063805171516194,-0.14945901701839404,61
1764361420.7956488,335,1.6357421875,36.695947307072075,-3.1063805171516194,-0.05543846735895386,63
1764361420.8982162,329,1.6064453125,36.82064791150005,-4.841788627292187,0.06926213706902473,64
1764361420.999918,323,1.5771484375,36.581289300249054,-6.577196737432756,-0.1700964741819746,65
1764361421.101437,336,1.640625,36.6829605354936,-2.8171458321281913,-0.06842523893742936,66
1764361421.2027433,337,1.6455078125,36.59334929803818,-2.5279111471047635,-0.15803647639285145,66
1764361421.3041584,334,1.630859375,36.63970342198211,-3.395615202175047,-0.11168235244891633,64
1764361421.405278,329,1.6064453125,36.77579310153326,-4.841788627292187,0.02440732710223159,62
1764361421.5071156,329,1.6064453125,36.70672863158333,-4.841788627292187,-0.04465714284769717,61
1764361421.6085691,322,1.572265625,36.78468246212402,-6.866431422456183,0.03329668769298877,59
1764361421.7099562,327,1.5966796875,36.59277853328369,-5.420257997339043,-0.1586072411473367,58
1764361421.8115103,327,1.5966796875,36.68083153501836,-5.420257997339043,-0.07055423941266525,59
1764361421.9131198,340,1.66015625,36.80093269727184,-1.6602070920344794,0.04954692284081119,61
1764361422.0161617,338,1.650390625,36.650970932274625,-2.2386764620813353,-0.10041484215640395,63
1764361422.1176722,334,1.630859375,36.705616605691944,-3.395615202175047,-0.045769168739084876,66
1764361422.218976,337,1.6455078125,36.71626983356778,-2.5279111471047635,-0.03511594086324976,66
1764361422.320269,330,1.611328125,36.88223531287176,-4.5525539422687595,0.130849538440728,64
1764361422.4215267,339,1.6552734375,36.73833536861294,-1.9494417770579073,-0.013050405818091804,63
1764361422.5232966,325,1.5869140625,36.71803096108849,-5.9987273673859,-0.03335481334254098,63
1764361422.624538,325,1.5869140625,36.63117076656567,-5.9987273673859,-0.12021500786536166,62
1764361422.72616,324,1.58203125,36.711319024858796,-6.287962052409328,-0.04006674957223311,64
1764361422.8276517,330,1.611328125,36.90917237680282,-4.5525539422687595,0.1577866023717931,63
1764361422.9287622,321,1.5673828125,36.836752592086896,-7.155666107479611,0.08536681765586707,65
1764361423.0332086,325,1.5869140625,36.946902560824995,-5.9987273673859,0.1955167863939664,65
1764361423.13563,329,1.6064453125,36.73661984148221,-4.841788627292187,-0.014765932948819227,65
1764361423.237104,326,1.591796875,36.779422892126846,-5.709492682362471,0.02803711769581696,65
1764361423.3385558,323,1.5771484375,36.86676196364076,-6.577196737432756,0.11537618920973358,66
1764361423.4399214,326,1.591796875,36.59687575309896,-5.709492682362471,-0.15451002133206515,66
1764361423.5413947,331,1.6162109375,36.829922484751286,-4.263319257245332,0.07853671032025744,66
1764361423.6428237,328,1.6015625,36.623402756453295,-5.131023312315616,-0.12798301797773348,66
1764361423.744029,335,1.6357421875,36.77865440885008,-3.1063805171516194,0.027268634419051807,68
1764361423.8463955,340,1.66015625,36.91881253342601,-1.6602070920344794,0.16742675899498494,69
1764361423.9482,333,1.6259765625,36.72175561348092,-3.6848498871984754,-0.029630160950105733,69
1764361424.0495136,332,1.62109375,36.95029240486088,-3.974084572221903,0.19890663042985324,68
1764361424.1509242,323,1.5771484375,36.799866149382204,-6.577196737432756,0.04848037495117552,69
1764361424.251928,325,1.5869140625,36.66060855336195,-5.9987273673859,-0.09077722106907515,64
1764361424.3531961,325,1.5869140625,36.952002260494126,-5.9987273673859,0.20061648606309745,61
1764361424.454563,330,1.611328125,36.80768547688023,-4.5525539422687595,0.056299702449202016,58
1764361424.555922,320,1.5625,36.57258397713677,-7.44490079250304,-0.1788017972942555,56
1764361424.6570501,327,1.5966796875,36.84318124506001,-5.420257997339043,0.09179547062898052,54
1764361424.758263,337,1.6455078125,36.81147420387286,-2.5279111471047635,0.06008842944183357,56
1764361424.859486,328,1.6015625,36.63467458795708,-5.131023312315616,-0.11671118647394962,58
1764361424.9608395,332,1.62109375,36.90882974577738,-3.974084572221903,0.15744397134635335,60
1764361425.0623736,327,1.5966796875,36.78414604668879,-5.420257997339043,0.0327602722577609,61
1764361425.1640458,325,1.5869140625,36.80420849079082,-5.9987273673859,0.052822716359791855,60
1764361425.2656562,333,1.6259765625,36.79729187206348,-3.6848498871984754,0.04590609763245368,60
1764361425.3667934,338,1.650390625,36.75880774780562,-2.2386764620813353,0.007421973374590607,59
1764361425.4678125,328,1.6015625,36.602259985004366,-5.131023312315616,-0.14912578942666244,60
1764361425.5690875,340,1.66015625,36.71159921312477,-1.6602070920344794,-0.039786561306257795,61
1764361425.6708193,336,1.640625,36.922179916704316,-2.8171458321281913,0.17079414227328726,61
1764361425.7721667,332,1.62109375,36.94443829259128,-3.974084572221903,0.19305251816025049,61
1764361425.8739796,327,1.5966796875,36.720722969790536,-5.420257997339043,-0.030662804640492425,61
1764361425.9757485,339,1.6552734375,36.61658930884157,-1.9494417770579073,-0.13479646558946,60
1764361426.077577,324,1.58203125,36.778191603218254,-6.287962052409328,0.02680582878722504,59
1764361426.179095,324,1.58203125,36.82655482223964,-6.287962052409328,0.07516904780861466,59
1764361426.2805545,324,1.58203125,36.71643911623098,-6.287962052409328,-0.03494665820004883,59
1764361426.3820622,327,1.5966796875,36.831856501903104,-5.420257997339043,0.08047072747207551,58
1764361426.483401,321,1.5673828125,36.91895131324159,-7.155666107479611,0.1675655388105639,58
1764361426.5849385,339,1.6552734375,36.60487465409061,-1.9494417770579073,-0.14651112034042058,57
1764361426.6864777,323,1.5771484375,36.90899222487962,-6.577196737432756,0.1576064504485899,57
1764361426.7884471,327,1.5966796875,36.60117750044661,-5.420257997339043,-0.15020827398441838,56
1764361426.8897088,333,1.6259765625,36.81377904398215,-3.6848498871984754,0.0623932695511229,56
1764361426.99128,330,1.611328125,36.845518451944315,-4.5525539422687595,0.09413267751328647,57
1764361427.0927024,326,1.591796875,36.77157465290393,-5.709492682362471,0.02018887847290074,58
1764361427.1947558,336,1.640625,36.80339654640154,-2.8171458321281913,0.052010771970508074,58
1764361427.2965796,337,1.6455078125,36.71072459227207,-2.5279111471047635,-0.04066118215895642,59
1764361427.3981674,334,1.630859375,36.815779240507936,-3.395615202175047,0.06439346607690766,61
1764361427.4995708,337,1.6455078125,36.67585202562984,-2.5279111471047635,-0.07553374880119179,62
1764361427.6010902,324,1.58203125,36.70548789933451,-6.287962052409328,-0.045897875096521545,64
1764361427.7026029,329,1.6064453125,36.596160279533585,-4.841788627292187,-0.15522549489744364,65
1764361427.8041394,340,1.66015625,36.92061786567285,-1.6602070920344794,0.16923209124182392,67
1764361427.9053857,325,1.5869140625,36.800096190053516,-5.9987273673859,0.048710415622487346,66
1764361428.006783,325,1.5869140625,36.74060661672007,-5.9987273673859,-0.01077915771095661,67
1764361428.1080627,335,1.6357421875,36.95527420484708,-3.1063805171516194,0.20388843041605043,65
1764361428.2100348,336,1.640625,36.64583236168326,-2.8171458321281913,-0.10555341274776708,63
1764361428.312494,325,1.5869140625,36.914852079433544,-5.9987273673859,0.16346630500251536,61
1764361428.4138625,327,1.5966796875,36.564802694249884,-5.420257997339043,-0.1865830801811441,60
1764361428.5151734,327,1.5966796875,36.86846383132441,-5.420257997339043,0.11707805689338358,59
1764361428.6167312,331,1.6162109375,36.76361005185105,-4.263319257245332,0.01222427742002452,60
