timestamp,ecg_raw,ecg_voltage,temperature,ecg_change_percent,temp_change_celsius,bpm
1764815321.95976,9801,1.3539,38.26,-6.3556154997660155,-0.07683673469387742,70
1764815322.061931,9901,1.349,38.26,-6.694530843625354,-0.07683673469387742,70
1764815322.163586,10001,1.3539,38.07,-6.3556154997660155,-0.26683673469387514,70
1764815322.2659228,10101,1.3587,38.02,-6.023616795577291,-0.3168367346938723,70
1764815322.3678026,10201,1.3587,38.02,-6.023616795577291,-0.3168367346938723,70
1764815322.4710145,10301,1.3587,38.26,-6.023616795577291,-0.07683673469387742,70
1764815322.5740252,10401,1.3587,38.21,-6.023616795577291,-0.12683673469387458,70
1764815322.6756902,10501,1.3636,38.16,-5.684701451717967,-0.17683673469387884,70
1764815322.7784777,10601,1.3636,38.12,-5.684701451717967,-0.21683673469387799,70
1764815322.8806052,10701,1.3636,38.21,-5.684701451717967,-0.12683673469387458,70
1764815322.9828687,10801,1.3636,38.45,-5.684701451717967,0.11316326530612741,70
1764815323.0860841,10901,1.3636,38.35,-5.684701451717967,0.013163265306125993,70
1764815323.1889079,11001,1.3587,38.4,-6.023616795577291,0.06316326530612315,70
1764815323.2902923,11101,1.3587,38.5,-6.023616795577291,0.16316326530612457,70
1764815323.3917341,11201,1.3587,38.5,-6.023616795577291,0.16316326530612457,70
1764815323.4936445,11301,1.3539,38.4,-6.3556154997660155,0.06316326530612315,70
1764815323.5954914,11401,1.349,38.07,-6.694530843625354,-0.26683673469387514,70
1764815323.698003,11501,1.3441,38.31,-7.033446187484676,-0.026836734693873154,70
1764815323.8010578,11601,1.3392,38.26,-7.372361531344016,-0.07683673469387742,70
1764815323.9032805,11701,1.3392,38.31,-7.372361531344016,-0.026836734693873154,70
1764815324.0051427,11801,1.3343,38.31,-7.711276875203339,-0.026836734693873154,70
1764815324.1070843,11901,1.3294,38.16,-8.050192219062676,-0.17683673469387884,70
1764815324.2090256,12001,1.3294,38.21,-8.050192219062676,-0.12683673469387458,70
1764815324.3108304,12101,1.3294,38.02,-8.050192219062676,-0.3168367346938723,70
1764815324.4131782,12201,1.3294,38.07,-8.050192219062676,-0.26683673469387514,70
1764815324.5155764,12301,1.3294,38.07,-8.050192219062676,-0.26683673469387514,70
1764815324.6188912,12401,1.3294,38.02,-8.050192219062676,-0.3168367346938723,70
1764815324.720887,12501,1.3294,38.4,-8.050192219062676,0.06316326530612315,70
1764815324.8226943,12601,1.3343,38.02,-7.711276875203339,-0.3168367346938723,70
1764815324.9257197,12701,1.3343,38.26,-7.711276875203339,-0.07683673469387742,70
1764815325.0278666,12801,1.3392,38.02,-7.372361531344016,-0.3168367346938723,70
1764815325.1303954,12901,1.3392,38.21,-7.372361531344016,-0.12683673469387458,70
1764815325.2333198,13001,1.3392,38.16,-7.372361531344016,-0.17683673469387884,70
1764815325.3350253,13101,1.3441,38.12,-7.033446187484676,-0.21683673469387799,70
1764815325.4369218,13201,1.3392,38.16,-7.372361531344016,-0.17683673469387884,70
1764815325.5395815,13301,1.3392,38.21,-7.372361531344016,-0.12683673469387458,70
1764815325.6417153,13401,1.3441,38.07,-7.033446187484676,-0.26683673469387514,70
1764815325.7435148,13501,1.3441,38.07,-7.033446187484676,-0.26683673469387514,70
1764815325.8460531,13601,1.3441,38.21,-7.033446187484676,-0.12683673469387458,70
1764815325.947571,13701,1.3441,38.4,-7.033446187484676,0.06316326530612315,70
1764815326.049767,13801,1.3441,38.45,-7.033446187484676,0.11316326530612741,70
1764815326.1516702,13901,1.3441,38.31,-7.033446187484676,-0.026836734693873154,70
1764815326.2532065,14001,1.3441,38.02,-7.033446187484676,-0.3168367346938723,70
1764815326.3548648,14101,1.3441,38.12,-7.033446187484676,-0.21683673469387799,70
1764815326.4569285,14201,1.3539,38.12,-6.3556154997660155,-0.21683673469387799,70
1764815326.5589254,14301,1.349,38.26,-6.694530843625354,-0.07683673469387742,70
1764815326.6612124,14401,1.349,38.26,-6.694530843625354,-0.07683673469387742,70
1764815326.7643406,14501,1.3539,38.21,-6.3556154997660155,-0.12683673469387458,70
1764815326.8667424,14601,1.3441,38.5,-7.033446187484676,0.16316326530612457,70
1764815326.9686315,14701,1.349,38.31,-6.694530843625354,-0.026836734693873154,70
1764815327.070657,14801,1.3392,38.31,-7.372361531344016,-0.026836734693873154,70
1764815327.1728926,14901,1.349,38.21,-6.694530843625354,-0.12683673469387458,70
1764815327.2751908,15001,1.3441,38.12,-7.033446187484676,-0.21683673469387799,70
1764815327.3786473,15101,1.3343,38.35,-7.711276875203339,0.013163265306125993,70
1764815327.4818401,15201,1.3441,38.16,-7.033446187484676,-0.17683673469387884,70
1764815327.5841525,15301,1.3392,38.16,-7.372361531344016,-0.17683673469387884,70
1764815327.6868005,15401,1.3441,38.26,-7.033446187484676,-0.07683673469387742,70
1764815327.7888494,15501,1.3392,38.4,-7.372361531344016,0.06316326530612315,70
1764815327.8909166,15601,1.3392,38.16,-7.372361531344016,-0.17683673469387884,70
1764815327.9932437,15701,1.3441,38.02,-7.033446187484676,-0.3168367346938723,70
1764815328.0949755,15801,1.3392,38.07,-7.372361531344016,-0.26683673469387514,70
1764815328.1971774,15901,1.3392,38.26,-7.372361531344016,-0.07683673469387742,70
1764815328.299489,16001,1.3441,38.12,-7.033446187484676,-0.21683673469387799,70
1764815328.4018524,16101,1.3392,38.07,-7.372361531344016,-0.26683673469387514,41
1764815328.5043392,16201,1.3441,38.02,-7.033446187484676,-0.3168367346938723,41
1764815328.6069784,16301,1.3196,37.93,-8.728022906781323,-0.4068367346938757,42
1764815328.7099767,16401,1.3099,37.41,-9.398936954829388,-0.9268367346938788,43
1764815328.8122609,16501,1.3392,38.21,-7.372361531344016,-0.12683673469387458,43
1764815328.914555,16601,1.3392,38.16,-7.372361531344016,-0.17683673469387884,43
1764815329.0165992,16701,1.3392,38.45,-7.372361531344016,0.11316326530612741,44
1764815329.1185234,16801,1.3392,38.26,-7.372361531344016,-0.07683673469387742,44
1764815329.2204678,16901,1.3392,38.26,-7.372361531344016,-0.07683673469387742,44
1764815329.3226333,17001,1.3343,38.4,-7.711276875203339,0.06316326530612315,44
1764815329.4260004,17101,1.3392,38.16,-7.372361531344016,-0.17683673469387884,44
1764815329.5284302,17201,1.3392,38.07,-7.372361531344016,-0.26683673469387514,44
1764815329.630773,17301,1.3343,38.54,-7.711276875203339,0.20316326530612372,44
1764815329.7327101,17401,1.3343,38.4,-7.711276875203339,0.06316326530612315,44
1764815329.835225,17501,1.3343,38.4,-7.711276875203339,0.06316326530612315,44
1764815329.9376173,17601,1.3343,38.26,-7.711276875203339,-0.07683673469387742,44
1764815330.0394344,17701,1.3294,38.07,-8.050192219062676,-0.26683673469387514,44
1764815330.1425934,17801,1.3343,38.16,-7.711276875203339,-0.17683673469387884,44
1764815330.244259,17901,1.3294,38.35,-8.050192219062676,0.013163265306125993,44
1764815330.3462093,18001,1.3294,38.5,-8.050192219062676,0.16316326530612457,44
1764815330.4489014,18101,1.3294,38.12,-8.050192219062676,-0.21683673469387799,44
1764815330.5507274,18201,1.3294,38.26,-8.050192219062676,-0.07683673469387742,44
1764815330.6527827,18301,1.3343,38.07,-7.711276875203339,-0.26683673469387514,44
1764815330.7547336,18401,1.3343,38.4,-7.711276875203339,0.06316326530612315,44
1764815330.8582547,18501,1.3343,38.4,-7.711276875203339,0.06316326530612315,44
1764815330.9604254,18601,1.3294,38.5,-8.050192219062676,0.16316326530612457,44
1764815331.0622728,18701,1.3343,38.5,-7.711276875203339,0.16316326530612457,44
1764815331.1644447,18801,1.3343,38.35,-7.711276875203339,0.013163265306125993,44
1764815331.2660856,18901,1.3294,38.4,-8.050192219062676,0.06316326530612315,44
1764815331.3676438,19001,1.3343,38.35,-7.711276875203339,0.013163265306125993,44
1764815331.4697797,19101,1.3343,38.07,-7.711276875203339,-0.26683673469387514,44
1764815331.571592,19201,1.3294,38.07,-8.050192219062676,-0.26683673469387514,44
1764815331.6739357,19301,1.3294,38.31,-8.050192219062676,-0.026836734693873154,44
1764815331.776534,19401,1.3294,38.64,-8.050192219062676,0.30316326530612514,44
1764815331.8795054,19501,1.3294,38.26,-8.050192219062676,-0.07683673469387742,44
1764815331.9819076,19601,1.3343,38.5,-7.711276875203339,0.16316326530612457,44
1764815332.0840292,19701,1.3294,38.31,-8.050192219062676,-0.026836734693873154,44
1764815332.186323,19801,1.3343,38.31,-7.711276875203339,-0.026836734693873154,44
1764815332.2880273,19901,1.3343,38.07,-7.711276875203339,-0.26683673469387514,44
1764815332.3904645,20001,1.3343,38.12,-7.711276875203339,-0.21683673469387799,44
1764815332.493295,20101,1.3343,38.31,-7.711276875203339,-0.026836734693873154,44
1764815332.5960298,20201,1.3392,38.16,-7.372361531344016,-0.17683673469387884,44
1764815332.6987164,20301,1.3392,38.07,-7.372361531344016,-0.26683673469387514,44
1764815332.800705,20401,1.3392,38.16,-7.372361531344016,-0.17683673469387884,44
1764815332.9028132,20501,1.3392,38.54,-7.372361531344016,0.20316326530612372,47
1764815333.0057745,20601,1.3343,38.35,-7.711276875203339,0.013163265306125993,51
1764815333.1079547,20701,1.3343,38.12,-7.711276875203339,-0.21683673469387799,55
1764815333.2101226,20801,1.3294,38.31,-8.050192219062676,-0.026836734693873154,58
1764815333.313475,20901,1.3245,37.97,-8.389107562922,-0.36683673469387656,62
1764815333.4152617,21001,1.3196,38.12,-8.728022906781323,-0.21683673469387799,62
1764815333.5177712,21101,1.3196,38.07,-8.728022906781323,-0.26683673469387514,62
1764815333.6196709,21201,1.3148,38.07,-9.060021610970063,-0.26683673469387514,62
1764815333.7223046,21301,1.3099,38.16,-9.398936954829388,-0.17683673469387884,62
1764815333.8248022,21401,1.3099,38.31,-9.398936954829388,-0.026836734693873154,62
1764815333.9265845,21501,1.3099,37.93,-9.398936954829388,-0.4068367346938757,62
1764815334.029126,21601,1.3099,38.35,-9.398936954829388,0.013163265306125993,62
1764815334.1312208,21701,1.3099,38.31,-9.398936954829388,-0.026836734693873154,62
1764815334.2332978,21801,1.305,38.21,-9.737852298688725,-0.12683673469387458,62
1764815334.3352606,21901,1.3099,38.35,-9.398936954829388,0.013163265306125993,62
1764815334.4385598,22001,1.3001,38.12,-10.076767642548049,-0.21683673469387799,62
1764815334.5404382,22101,1.3001,38.12,-10.076767642548049,-0.21683673469387799,62
1764815334.6434364,22201,1.3099,38.12,-9.398936954829388,-0.21683673469387799,62
1764815334.7457557,22301,1.2952,38.26,-10.415682986407388,-0.07683673469387742,62
1764815334.8474882,22401,1.3001,38.45,-10.076767642548049,0.11316326530612741,57
1764815334.9491262,22501,1.3001,38.21,-10.076767642548049,-0.12683673469387458,53
1764815335.0509028,22601,1.3001,38.02,-10.076767642548049,-0.3168367346938723,49
1764815335.1527054,22701,1.3001,38.12,-10.076767642548049,-0.21683673469387799,45
1764815335.254855,22801,1.2952,38.4,-10.415682986407388,0.06316326530612315,41
1764815335.3572314,22901,1.2952,38.35,-10.415682986407388,0.013163265306125993,41
1764815335.4591045,23001,1.2903,38.31,-10.75459833026671,-0.026836734693873154,41
1764815335.5614266,23101,1.2952,38.12,-10.415682986407388,-0.21683673469387799,41
1764815335.6633658,23201,1.2854,38.02,-11.093513674126033,-0.3168367346938723,41
1764815335.7648935,23301,1.2805,38.45,-11.43242901798537,0.11316326530612741,41
1764815335.8668702,23401,1.2903,38.12,-10.75459833026671,-0.21683673469387799,41
1764815335.9685395,23501,1.2854,38.07,-11.093513674126033,-0.26683673469387514,41
1764815336.0708919,23601,1.2903,38.16,-10.75459833026671,-0.17683673469387884,41
1764815336.1724708,23701,1.2854,38.35,-11.093513674126033,0.013163265306125993,41
1764815336.2746954,23801,1.2854,38.21,-11.093513674126033,-0.12683673469387458,41
1764815336.3772125,23901,1.2854,38.07,-11.093513674126033,-0.26683673469387514,41
1764815336.4792306,24001,1.2805,38.35,-11.43242901798537,0.013163265306125993,41
1764815336.581025,24101,1.2854,38.12,-11.093513674126033,-0.21683673469387799,41
1764815336.6842911,24201,1.2903,38.31,-10.75459833026671,-0.026836734693873154,41
1764815336.7864141,24301,1.2903,38.02,-10.75459833026671,-0.3168367346938723,41
1764815336.8887503,24401,1.2952,38.45,-10.415682986407388,0.11316326530612741,41
1764815336.991249,24501,1.2952,38.16,-10.415682986407388,-0.17683673469387884,41
1764815337.0933726,24601,1.3001,38.07,-10.076767642548049,-0.26683673469387514,41
1764815337.1952977,24701,1.2952,38.4,-10.415682986407388,0.06316326530612315,41
1764815337.2969663,24801,1.3001,38.35,-10.076767642548049,0.013163265306125993,41
1764815337.3986647,24901,1.3001,38.26,-10.076767642548049,-0.07683673469387742,41
1764815337.50066,25001,1.2952,38.07,-10.415682986407388,-0.26683673469387514,41
1764815337.6028724,25101,1.2952,37.97,-10.415682986407388,-0.36683673469387656,41
1764815337.7048619,25201,1.2952,38.16,-10.415682986407388,-0.17683673469387884,41
1764815337.8063767,25301,1.2952,38.54,-10.415682986407388,0.20316326530612372,41
1764815337.9094813,25401,1.2952,38.02,-10.415682986407388,-0.3168367346938723,41
1764815338.0117798,25501,1.2903,38.4,-10.75459833026671,0.06316326530612315,41
1764815338.1139,25601,1.2903,38.45,-10.75459833026671,0.11316326530612741,41
1764815338.2159014,25701,1.2952,38.16,-10.415682986407388,-0.17683673469387884,41
1764815338.3179243,25801,1.2952,38.07,-10.415682986407388,-0.26683673469387514,41
1764815338.420305,25901,1.2952,38.45,-10.415682986407388,0.11316326530612741,41
1764815338.5223513,26001,1.3001,38.07,-10.076767642548049,-0.26683673469387514,41
1764815338.6246965,26101,1.3001,37.97,-10.076767642548049,-0.36683673469387656,41
1764815338.72649,26201,1.305,38.31,-9.737852298688725,-0.026836734693873154,41
1764815338.8290653,26301,1.305,38.35,-9.737852298688725,0.013163265306125993,41
1764815338.931813,26401,1.305,38.16,-9.737852298688725,-0.17683673469387884,41
1764815339.0337734,26501,1.305,38.07,-9.737852298688725,-0.26683673469387514,41
1764815339.136272,26601,1.3099,38.02,-9.398936954829388,-0.3168367346938723,41
1764815339.2384696,26701,1.3099,38.31,-9.398936954829388,-0.026836734693873154,41
1764815339.3411129,26801,1.3099,38.21,-9.398936954829388,-0.12683673469387458,41
1764815339.4459856,26901,1.3099,38.07,-9.398936954829388,-0.26683673469387514,41
1764815339.547938,27001,1.3099,38.12,-9.398936954829388,-0.21683673469387799,41
1764815339.6499577,27101,1.3099,38.4,-9.398936954829388,0.06316326530612315,41
1764815339.7522886,27201,1.3148,38.4,-9.060021610970063,0.06316326530612315,41
1764815339.8541756,27301,1.3148,38.12,-9.060021610970063,-0.21683673469387799,41
1764815339.9560826,27401,1.3148,38.45,-9.060021610970063,0.11316326530612741,41
1764815340.0592873,27501,1.3148,38.02,-9.060021610970063,-0.3168367346938723,41
1764815340.1613305,27601,1.3148,38.4,-9.060021610970063,0.06316326530612315,41
1764815340.2636335,27701,1.3148,38.45,-9.060021610970063,0.11316326530612741,41
1764815340.3660738,27801,1.3148,38.07,-9.060021610970063,-0.26683673469387514,41
1764815340.4692585,27901,1.3148,38.45,-9.060021610970063,0.11316326530612741,41
1764815340.5711057,28001,1.3148,38.16,-9.060021610970063,-0.17683673469387884,41
1764815340.6727865,28101,1.3099,38.35,-9.398936954829388,0.013163265306125993,41
1764815340.7746546,28201,1.3099,38.26,-9.398936954829388,-0.07683673469387742,41
1764815340.8767626,28301,1.3099,38.07,-9.398936954829388,-0.26683673469387514,41
1764815340.9786727,28401,1.3099,38.54,-9.398936954829388,0.20316326530612372,51
1764815341.0806155,28501,1.3099,38.35,-9.398936954829388,0.013163265306125993,61
1764815341.182696,28601,1.3099,38.4,-9.398936954829388,0.06316326530612315,72
1764815341.2848125,28701,1.3148,38.31,-9.060021610970063,-0.026836734693873154,82
1764815341.3869975,28801,1.3148,38.31,-9.060021610970063,-0.026836734693873154,92
1764815341.4906392,28901,1.3196,38.26,-8.728022906781323,-0.07683673469387742,92
1764815341.5923913,29001,1.3148,38.31,-9.060021610970063,-0.026836734693873154,92
1764815341.694753,29101,1.3196,38.26,-8.728022906781323,-0.07683673469387742,92
1764815341.7969549,29201,1.3196,38.16,-8.728022906781323,-0.17683673469387884,92
1764815341.8993878,29301,1.3196,38.12,-8.728022906781323,-0.21683673469387799,92
1764815342.001959,29401,1.3196,38.31,-8.728022906781323,-0.026836734693873154,92
1764815342.1042788,29501,1.3148,38.4,-9.060021610970063,0.06316326530612315,92
1764815342.2061288,29601,1.3196,38.16,-8.728022906781323,-0.17683673469387884,92
1764815342.308359,29701,1.3148,38.5,-9.060021610970063,0.16316326530612457,92
1764815342.410343,29801,1.3148,38.4,-9.060021610970063,0.06316326530612315,92
1764815342.5122697,29901,1.3099,38.16,-9.398936954829388,-0.17683673469387884,92
1764815342.6143684,30001,1.3099,38.4,-9.398936954829388,0.06316326530612315,92
1764815342.7168934,30101,1.3099,38.35,-9.398936954829388,0.013163265306125993,85
1764815342.8191838,30201,1.305,38.4,-9.737852298688725,0.06316326530612315,79
1764815342.9209845,30301,1.3099,38.35,-9.398936954829388,0.013163265306125993,72
1764815343.023627,30401,1.3099,38.02,-9.398936954829388,-0.3168367346938723,66
1764815343.1255972,30501,1.2952,37.88,-10.415682986407388,-0.45683673469387287,60
1764815343.227425,30601,1.3099,38.16,-9.398936954829388,-0.17683673469387884,60
1764815343.329984,30701,1.3099,38.21,-9.398936954829388,-0.12683673469387458,60
1764815343.4316366,30801,1.3099,38.21,-9.398936954829388,-0.12683673469387458,60
1764815343.5335922,30901,1.305,38.35,-9.737852298688725,0.013163265306125993,60
1764815343.6352434,31001,1.305,38.26,-9.737852298688725,-0.07683673469387742,60
1764815343.7372746,31101,1.3099,38.16,-9.398936954829388,-0.17683673469387884,60
1764815343.8397765,31201,1.3099,38.16,-9.398936954829388,-0.17683673469387884,60
1764815343.9459624,31301,1.3099,38.07,-9.398936954829388,-0.26683673469387514,60
1764815344.0475056,31401,1.3099,38.4,-9.398936954829388,0.06316326530612315,60
1764815344.1493237,31501,1.3099,38.12,-9.398936954829388,-0.21683673469387799,60
1764815344.2524843,31601,1.3099,38.31,-9.398936954829388,-0.026836734693873154,60
1764815344.3549738,31701,1.3099,38.4,-9.398936954829388,0.06316326530612315,60
1764815344.4570372,31801,1.3099,38.54,-9.398936954829388,0.20316326530612372,60
1764815344.5588725,31901,1.305,38.12,-9.737852298688725,-0.21683673469387799,60
1764815344.6606648,32001,1.3001,38.16,-10.076767642548049,-0.17683673469387884,60
1764815344.762498,32101,1.2952,38.59,-10.415682986407388,0.253163265306128,60
1764815344.8645458,32201,1.2952,38.4,-10.415682986407388,0.06316326530612315,61
1764815344.9660234,32301,1.2952,38.26,-10.415682986407388,-0.07683673469387742,61
1764815345.0678213,32401,1.2952,38.26,-10.415682986407388,-0.07683673469387742,62
1764815345.1700435,32501,1.2952,38.35,-10.415682986407388,0.013163265306125993,63
1764815345.2718637,32601,1.3001,38.12,-10.076767642548049,-0.21683673469387799,63
1764815345.373842,32701,1.2952,38.59,-10.415682986407388,0.253163265306128,63
1764815345.475924,32801,1.2903,38.45,-10.75459833026671,0.11316326530612741,63
1764815345.5784137,32901,1.3001,38.5,-10.076767642548049,0.16316326530612457,63
1764815345.6802282,33001,1.3001,38.21,-10.076767642548049,-0.12683673469387458,63
1764815345.7825646,33101,1.305,38.12,-9.737852298688725,-0.21683673469387799,63
1764815345.8845384,33201,1.305,38.21,-9.737852298688725,-0.12683673469387458,63
1764815345.9862673,33301,1.305,38.12,-9.737852298688725,-0.21683673469387799,63
1764815346.0886388,33401,1.305,38.45,-9.737852298688725,0.11316326530612741,63
1764815346.19099,33501,1.3099,38.35,-9.398936954829388,0.013163265306125993,63
1764815346.2927866,33601,1.3099,38.16,-9.398936954829388,-0.17683673469387884,63
1764815346.3951197,33701,1.3099,38.54,-9.398936954829388,0.20316326530612372,63
1764815346.4981713,33801,1.3099,38.26,-9.398936954829388,-0.07683673469387742,63
1764815346.6006422,33901,1.3099,38.21,-9.398936954829388,-0.12683673469387458,62
1764815346.7030241,34001,1.305,38.16,-9.737852298688725,-0.17683673469387884,61
1764815346.8055065,34101,1.3001,38.26,-10.076767642548049,-0.07683673469387742,61
1764815346.9072504,34201,1.3001,38.21,-10.076767642548049,-0.12683673469387458,60
1764815347.0092378,34301,1.2952,38.31,-10.415682986407388,-0.026836734693873154,60
1764815347.111231,34401,1.2854,38.5,-11.093513674126033,0.16316326530612457,60
1764815347.2145147,34501,1.2952,38.31,-10.415682986407388,-0.026836734693873154,60
1764815347.3168876,34601,1.2903,38.21,-10.75459833026671,-0.12683673469387458,60
1764815347.4188917,34701,1.3001,38.31,-10.076767642548049,-0.026836734693873154,60
1764815347.5211148,34801,1.2952,38.16,-10.415682986407388,-0.17683673469387884,60
1764815347.6233163,34901,1.2952,38.4,-10.415682986407388,0.06316326530612315,60
1764815347.7253752,35001,1.2903,38.21,-10.75459833026671,-0.12683673469387458,60
1764815347.8279483,35101,1.3001,38.16,-10.076767642548049,-0.17683673469387884,60
1764815347.9310374,35201,1.3001,38.31,-10.076767642548049,-0.026836734693873154,60
1764815348.0335188,35301,1.3001,38.21,-10.076767642548049,-0.12683673469387458,60
1764815348.1361327,35401,1.3001,38.4,-10.076767642548049,0.06316326530612315,60
1764815348.2382114,35501,1.3001,38.16,-10.076767642548049,-0.17683673469387884,60
1764815348.3404927,35601,1.3001,38.54,-10.076767642548049,0.20316326530612372,60
1764815348.4420493,35701,1.3001,38.4,-10.076767642548049,0.06316326530612315,60
1764815348.544824,35801,1.3001,38.5,-10.076767642548049,0.16316326530612457,60
1764815348.648023,35901,1.3001,38.35,-10.076767642548049,0.013163265306125993,60
1764815348.7504485,36001,1.2952,38.35,-10.415682986407388,0.013163265306125993,60
1764815348.8530166,36101,1.3001,38.16,-10.076767642548049,-0.17683673469387884,60
1764815348.9551384,36201,1.3001,38.35,-10.076767642548049,0.013163265306125993,60
1764815349.0581908,36301,1.3001,38.31,-10.076767642548049,-0.026836734693873154,60
1764815349.1601121,36401,1.3001,38.5,-10.076767642548049,0.16316326530612457,60
1764815349.2618113,36501,1.2952,38.26,-10.415682986407388,-0.07683673469387742,60
1764815349.3637125,36601,1.2952,38.21,-10.415682986407388,-0.12683673469387458,60
1764815349.4665189,36701,1.2903,38.35,-10.75459833026671,0.013163265306125993,60
1764815349.5688992,36801,1.2903,38.5,-10.75459833026671,0.16316326530612457,60
1764815349.671809,36901,1.2903,38.35,-10.75459833026671,0.013163265306125993,60
1764815349.7741742,37001,1.2903,38.35,-10.75459833026671,0.013163265306125993,60
1764815349.8760033,37101,1.2952,38.5,-10.415682986407388,0.16316326530612457,58
1764815349.9790015,37201,1.3001,38.21,-10.076767642548049,-0.12683673469387458,56
1764815350.0809705,37301,1.3001,38.21,-10.076767642548049,-0.12683673469387458,54
1764815350.1827624,37401,1.2952,38.16,-10.415682986407388,-0.17683673469387884,52
1764815350.2848582,37501,1.2952,38.54,-10.415682986407388,0.20316326530612372,49
1764815350.3875258,37601,1.3001,38.35,-10.076767642548049,0.013163265306125993,49
1764815350.4898152,37701,1.3001,38.5,-10.076767642548049,0.16316326530612457,49
1764815350.5920968,37801,1.3001,38.31,-10.076767642548049,-0.026836734693873154,49
1764815350.693957,37901,1.3001,38.35,-10.076767642548049,0.013163265306125993,49
1764815350.7958045,38001,1.3001,38.16,-10.076767642548049,-0.17683673469387884,49
1764815350.8979506,38101,1.3001,38.16,-10.076767642548049,-0.17683673469387884,49
1764815351.0000186,38201,1.2952,38.4,-10.415682986407388,0.06316326530612315,49
1764815351.1015341,38301,1.2952,38.12,-10.415682986407388,-0.21683673469387799,49
1764815351.203714,38401,1.2952,38.26,-10.415682986407388,-0.07683673469387742,49
1764815351.3055387,38501,1.2952,38.54,-10.415682986407388,0.20316326530612372,49
1764815351.4081423,38601,1.2952,38.31,-10.415682986407388,-0.026836734693873154,49
1764815351.510095,38701,1.2952,38.45,-10.415682986407388,0.11316326530612741,49
1764815351.61155,38801,1.2952,38.54,-10.415682986407388,0.20316326530612372,48
1764815351.7138333,38901,1.2952,38.35,-10.415682986407388,0.013163265306125993,47
1764815351.816583,39001,1.2952,38.45,-10.415682986407388,0.11316326530612741,46
1764815351.9208252,39101,1.2854,38.5,-11.093513674126033,0.16316326530612457,45
1764815352.02315,39201,1.2903,38.21,-10.75459833026671,-0.12683673469387458,43
1764815352.1257973,39301,1.2903,38.16,-10.75459833026671,-0.17683673469387884,43
1764815352.227661,39401,1.2903,38.31,-10.75459833026671,-0.026836734693873154,43
1764815352.3300145,39501,1.2903,38.54,-10.75459833026671,0.20316326530612372,43
1764815352.4321508,39601,1.2903,38.12,-10.75459833026671,-0.21683673469387799,43
1764815352.534293,39701,1.2952,38.21,-10.415682986407388,-0.12683673469387458,43
1764815352.6360621,39801,1.2952,38.12,-10.415682986407388,-0.21683673469387799,43
1764815352.738735,39901,1.2903,38.5,-10.75459833026671,0.16316326530612457,43
1764815352.8407729,40001,1.2903,38.21,-10.75459833026671,-0.12683673469387458,43
1764815352.9432132,40101,1.2903,38.83,-10.75459833026671,0.49316326530612287,43
1764815353.0448165,40201,1.2952,38.54,-10.415682986407388,0.20316326530612372,43
1764815353.147058,40301,1.2903,38.16,-10.75459833026671,-0.17683673469387884,43
1764815353.2499738,40401,1.2952,38.16,-10.415682986407388,-0.17683673469387884,43
1764815353.3525128,40501,1.2903,38.54,-10.75459833026671,0.20316326530612372,43
1764815353.454083,40601,1.2903,38.69,-10.75459833026671,0.3531632653061223,43
1764815353.555986,40701,1.2952,38.45,-10.415682986407388,0.11316326530612741,43
1764815353.6586034,40801,1.2854,38.31,-11.093513674126033,-0.026836734693873154,43
1764815353.7608047,40901,1.2903,38.4,-10.75459833026671,0.06316326530612315,43
1764815353.8625505,41001,1.2903,38.35,-10.75459833026671,0.013163265306125993,43
1764815353.9645045,41101,1.2952,38.35,-10.415682986407388,0.013163265306125993,43
1764815354.0692446,41201,1.2952,38.59,-10.415682986407388,0.253163265306128,43
1764815354.1711771,41301,1.2952,38.31,-10.415682986407388,-0.026836734693873154,43
1764815354.2732992,41401,1.2903,38.31,-10.75459833026671,-0.026836734693873154,43
1764815354.375287,41501,1.2757,38.31,-11.764427722174096,-0.026836734693873154,48
1764815354.4777274,41601,1.3001,38.16,-10.076767642548049,-0.17683673469387884,54
1764815354.5803182,41701,1.3001,38.31,-10.076767642548049,-0.026836734693873154,59
1764815354.6822853,41801,1.3001,38.59,-10.076767642548049,0.253163265306128,64
1764815354.784363,41901,1.2952,38.64,-10.415682986407388,0.30316326530612514,64
1764815354.8861492,42001,1.3001,38.64,-10.076767642548049,0.30316326530612514,59
1764815354.988111,42101,1.3001,38.16,-10.076767642548049,-0.17683673469387884,55
1764815355.0898104,42201,1.3001,38.45,-10.076767642548049,0.11316326530612741,50
1764815355.1917746,42301,1.2952,38.21,-10.415682986407388,-0.12683673469387458,45
1764815355.29429,42401,1.2952,38.21,-10.415682986407388,-0.12683673469387458,45
1764815355.3961258,42501,1.2952,38.5,-10.415682986407388,0.16316326530612457,44
1764815355.4992802,42601,1.2903,38.31,-10.75459833026671,-0.026836734693873154,44
1764815355.7055182,158701,1.2512,38.88,-13.459004441470743,0.5431632653061271,43
1764815355.908684,158401,1.2512,38.73,-13.459004441470743,0.39316326530612145,43
1764815356.0106113,158501,1.2512,38.98,-13.459004441470743,0.6431632653061214,42
1764815356.1128151,158601,1.2512,38.83,-13.459004441470743,0.49316326530612287,42
1764815356.2154913,158701,1.2512,38.88,-13.459004441470743,0.5431632653061271,42
1764815356.4188974,158401,1.2512,38.73,-13.459004441470743,0.39316326530612145,42
1764815356.5207083,158501,1.2512,38.98,-13.459004441470743,0.6431632653061214,42
1764815356.623038,158601,1.2512,38.83,-13.459004441470743,0.49316326530612287,42
1764815356.7252042,158701,1.2512,38.88,-13.459004441470743,0.5431632653061271,41
1764815356.8269424,158801,1.2463,39.12,-13.797919785330082,0.783163265306122,41
1764815356.9298193,158901,1.2366,38.78,-14.468833833378145,0.4431632653061257,41
1764815357.0320716,159001,1.2366,38.78,-14.468833833378145,0.4431632653061257,40
1764815357.1338692,159101,1.2366,39.07,-14.468833833378145,0.7331632653061249,40
1764815357.2358763,159201,1.2414,38.69,-14.136835129189404,0.3531632653061223,40
1764815357.3378928,159301,1.2463,38.88,-13.797919785330082,0.5431632653061271,40
1764815357.4408152,159401,1.2512,38.73,-13.459004441470743,0.39316326530612145,40
1764815357.5432396,159501,1.2512,38.83,-13.459004441470743,0.49316326530612287,40
1764815357.6450658,159601,1.2512,39.12,-13.459004441470743,0.783163265306122,40
1764815357.7475123,159701,1.2512,39.12,-13.459004441470743,0.783163265306122,40
1764815357.8497875,159801,1.2512,38.98,-13.459004441470743,0.6431632653061214,40
1764815357.9523773,159901,1.2463,38.78,-13.797919785330082,0.4431632653061257,45
1764815358.054346,160001,1.2512,39.02,-13.459004441470743,0.6831632653061277,49
1764815358.156595,160101,1.2366,39.12,-14.468833833378145,0.783163265306122,54
1764815358.2593822,160201,1.2317,38.83,-14.80774917723747,0.49316326530612287,56
1764815358.3616617,160301,1.2512,38.83,-13.459004441470743,0.49316326530612287,57
1764815358.4640582,160401,1.2561,39.17,-13.12008909761142,0.8331632653061263,54
1764815358.566257,160501,1.261,39.12,-12.781173753752098,0.783163265306122,51
1764815358.66891,160601,1.2659,39.27,-12.442258409892759,0.9331632653061277,48
1764815358.7711658,160701,1.2659,38.98,-12.442258409892759,0.6431632653061214,48
1764815358.8739998,160801,1.2659,39.27,-12.442258409892759,0.9331632653061277,48
1764815358.976655,160901,1.2757,39.02,-11.764427722174096,0.6831632653061277,48
1764815359.0786138,161001,1.2757,38.93,-11.764427722174096,0.5931632653061243,48
1764815359.1807885,161101,1.2757,39.07,-11.764427722174096,0.7331632653061249,48
1764815359.2833564,161201,1.2757,39.12,-11.764427722174096,0.783163265306122,51
1764815359.3852382,161301,1.2805,39.07,-11.43242901798537,0.7331632653061249,53
1764815359.487928,161401,1.2805,38.93,-11.43242901798537,0.5931632653061243,56
1764815359.5901067,161501,1.2805,38.98,-11.43242901798537,0.6431632653061214,58
1764815359.6926012,161601,1.2805,39.12,-11.43242901798537,0.783163265306122,61
1764815359.7947223,161701,1.2805,38.78,-11.43242901798537,0.4431632653061257,61
1764815359.8978539,161801,1.2757,38.98,-11.764427722174096,0.6431632653061214,61
1764815360.0000563,161901,1.2757,38.88,-11.764427722174096,0.5431632653061271,61
1764815360.1020844,162001,1.2805,38.73,-11.43242901798537,0.39316326530612145,61
1764815360.2044642,162101,1.2805,39.07,-11.43242901798537,0.7331632653061249,61
1764815360.3065698,162201,1.2805,38.78,-11.43242901798537,0.4431632653061257,63
1764815360.4091873,162301,1.2805,39.02,-11.43242901798537,0.6831632653061277,66
1764815360.5112803,162401,1.2805,38.78,-11.43242901798537,0.4431632653061257,69
1764815360.61388,162501,1.2757,39.22,-11.764427722174096,0.8831632653061234,72
1764815360.716558,162601,1.2805,39.07,-11.43242901798537,0.7331632653061249,75
1764815360.818961,162701,1.2805,39.12,-11.43242901798537,0.783163265306122,75
1764815360.9210992,162801,1.2757,39.07,-11.764427722174096,0.7331632653061249,75
1764815361.023456,162901,1.2757,39.07,-11.764427722174096,0.7331632653061249,75
1764815361.1252258,163001,1.2708,39.07,-12.103343066033435,0.7331632653061249,75
1764815361.2286448,163101,1.2708,38.88,-12.103343066033435,0.5431632653061271,75
1764815361.331349,163201,1.2757,38.93,-11.764427722174096,0.5931632653061243,75
1764815361.4330413,163301,1.2757,38.93,-11.764427722174096,0.5931632653061243,75
1764815361.5351434,163401,1.2757,38.78,-11.764427722174096,0.4431632653061257,75
1764815361.637561,163501,1.2757,39.07,-11.764427722174096,0.7331632653061249,75
1764815361.739673,163601,1.2757,38.98,-11.764427722174096,0.6431632653061214,75
1764815361.8418386,163701,1.2757,39.17,-11.764427722174096,0.8331632653061263,75
1764815361.9439788,163801,1.2757,38.78,-11.764427722174096,0.4431632653061257,75
1764815362.0460238,163901,1.2561,38.98,-13.12008909761142,0.6431632653061214,75
1764815362.1482434,164001,1.2512,38.88,-13.459004441470743,0.5431632653061271,75
1764815362.2504854,164101,1.2414,38.83,-14.136835129189404,0.49316326530612287,75
1764815362.3528068,164201,1.2317,38.78,-14.80774917723747,0.4431632653061257,75
1764815362.4550056,164301,1.2268,38.88,-15.146664521096806,0.5431632653061271,75
1764815362.55686,164401,1.2317,38.78,-14.80774917723747,0.4431632653061257,75
1764815362.6597874,164501,1.2317,38.93,-14.80774917723747,0.5931632653061243,75
1764815362.7618382,164601,1.2317,38.83,-14.80774917723747,0.49316326530612287,75
1764815362.863777,164701,1.2317,38.73,-14.80774917723747,0.39316326530612145,75
1764815362.9655027,164801,1.2268,38.78,-15.146664521096806,0.4431632653061257,75
1764815363.067871,164901,1.2268,38.83,-15.146664521096806,0.49316326530612287,75
1764815363.1703167,165001,1.2219,38.73,-15.485579864956131,0.39316326530612145,75
1764815363.2725468,165101,1.217,38.83,-15.824495208815453,0.49316326530612287,75
1764815363.3746634,165201,1.217,38.78,-15.824495208815453,0.4431632653061257,75
1764815363.4761958,165301,1.2121,39.02,-16.163410552674794,0.6831632653061277,75
1764815363.5784056,165401,1.217,39.12,-15.824495208815453,0.783163265306122,75
1764815363.6804433,165501,1.217,39.07,-15.824495208815453,0.7331632653061249,75
1764815363.7828462,165601,1.217,38.98,-15.824495208815453,0.6431632653061214,75
1764815363.8846173,165701,1.2219,39.12,-15.485579864956131,0.783163265306122,75
1764815363.9869795,165801,1.2268,39.27,-15.146664521096806,0.9331632653061277,75
1764815364.089239,165901,1.2219,38.83,-15.485579864956131,0.49316326530612287,75
1764815364.1913688,166001,1.2268,39.12,-15.146664521096806,0.783163265306122,75
1764815364.2940211,166101,1.2268,39.07,-15.146664521096806,0.7331632653061249,75
1764815364.395826,166201,1.2317,38.83,-14.80774917723747,0.49316326530612287,75
1764815364.4981737,166301,1.2268,38.88,-15.146664521096806,0.5431632653061271,75
1764815364.6001344,166401,1.2268,38.83,-15.146664521096806,0.49316326530612287,75
1764815364.7022579,166501,1.2219,38.78,-15.485579864956131,0.4431632653061257,75
1764815364.804123,166601,1.2268,38.73,-15.146664521096806,0.39316326530612145,75
1764815364.9060285,166701,1.2219,39.12,-15.485579864956131,0.783163265306122,75
1764815365.008127,166801,1.2219,38.98,-15.485579864956131,0.6431632653061214,75
1764815365.110512,166901,1.2268,38.73,-15.146664521096806,0.39316326530612145,75
1764815365.2126093,167001,1.2317,38.73,-14.80774917723747,0.39316326530612145,75
1764815365.314747,167101,1.2366,38.98,-14.468833833378145,0.6431632653061214,75
1764815365.4169898,167201,1.2366,38.83,-14.468833833378145,0.49316326530612287,75
1764815365.5193694,167301,1.2366,39.22,-14.468833833378145,0.8831632653061234,75
1764815365.6211226,167401,1.2317,38.98,-14.80774917723747,0.6431632653061214,75
1764815365.723219,167501,1.2366,38.88,-14.468833833378145,0.5431632653061271,75
1764815365.8256805,167601,1.2317,39.12,-14.80774917723747,0.783163265306122,75
1764815365.927779,167701,1.2268,39.02,-15.146664521096806,0.6831632653061277,75
1764815366.029571,167801,1.217,38.98,-15.824495208815453,0.6431632653061214,75
1764815366.1325936,167901,1.2219,39.07,-15.485579864956131,0.7331632653061249,75
1764815366.234756,168001,1.2268,39.22,-15.146664521096806,0.8831632653061234,75
1764815366.33675,168101,1.2317,38.78,-14.80774917723747,0.4431632653061257,75
1764815366.4382253,168201,1.2219,38.93,-15.485579864956131,0.5931632653061243,75
1764815366.5398307,168301,1.2219,38.73,-15.485579864956131,0.39316326530612145,75
1764815366.6421335,168401,1.2268,38.78,-15.146664521096806,0.4431632653061257,75
1764815366.7443857,168501,1.2268,38.83,-15.146664521096806,0.49316326530612287,75
1764815366.8481593,168601,1.2219,38.93,-15.485579864956131,0.5931632653061243,75
1764815366.9497173,168701,1.2317,38.93,-14.80774917723747,0.5931632653061243,75
1764815367.0513675,168801,1.2268,39.07,-15.146664521096806,0.7331632653061249,75
1764815367.1534429,168901,1.2317,38.78,-14.80774917723747,0.4431632653061257,75
1764815367.2553387,169001,1.2366,38.78,-14.468833833378145,0.4431632653061257,75
1764815367.357907,169101,1.2317,38.83,-14.80774917723747,0.49316326530612287,75
1764815367.46021,169201,1.2317,39.07,-14.80774917723747,0.7331632653061249,75
1764815367.562297,169301,1.2317,39.12,-14.80774917723747,0.783163265306122,75
1764815367.6644552,169401,1.2317,38.78,-14.80774917723747,0.4431632653061257,75
1764815367.769876,169501,1.2366,39.12,-14.468833833378145,0.783163265306122,75
1764815367.8729947,169601,1.2366,39.02,-14.468833833378145,0.6831632653061277,75
1764815367.9751017,169701,1.2366,39.12,-14.468833833378145,0.783163265306122,75
1764815368.077523,169801,1.2414,38.73,-14.136835129189404,0.39316326530612145,75
1764815368.179085,169901,1.2366,39.22,-14.468833833378145,0.8831632653061234,75
1764815368.2806323,170001,1.2366,39.22,-14.468833833378145,0.8831632653061234,75
1764815368.382796,170101,1.2366,38.83,-14.468833833378145,0.49316326530612287,75
1764815368.4851778,170201,1.2366,39.12,-14.468833833378145,0.783163265306122,75
1764815368.5871432,170301,1.2366,39.12,-14.468833833378145,0.783163265306122,75
1764815368.6893234,170401,1.2366,38.78,-14.468833833378145,0.4431632653061257,75
1764815368.7918842,170501,1.2317,38.98,-14.80774917723747,0.6431632653061214,75
1764815368.8935308,170601,1.2317,38.93,-14.80774917723747,0.5931632653061243,75
1764815368.995645,170701,1.2366,39.07,-14.468833833378145,0.7331632653061249,75
1764815369.0979264,170801,1.2317,38.88,-14.80774917723747,0.5431632653061271,75
1764815369.1999395,170901,1.2317,38.98,-14.80774917723747,0.6431632653061214,75
1764815369.3014102,171001,1.2317,38.78,-14.80774917723747,0.4431632653061257,75
1764815369.4029698,171101,1.2268,38.78,-15.146664521096806,0.4431632653061257,75
1764815369.5049787,171201,1.2268,38.88,-15.146664521096806,0.5431632653061271,75
1764815369.606666,171301,1.2268,38.73,-15.146664521096806,0.39316326530612145,75
1764815369.7100503,171401,1.2317,38.73,-14.80774917723747,0.39316326530612145,75
1764815369.8119934,171501,1.2317,38.78,-14.80774917723747,0.4431632653061257,75
1764815369.9137087,171601,1.2268,39.02,-15.146664521096806,0.6831632653061277,75
1764815370.015651,171701,1.2268,39.12,-15.146664521096806,0.783163265306122,75
1764815370.1174474,171801,1.2317,39.12,-14.80774917723747,0.783163265306122,75
1764815370.2194607,171901,1.2317,38.98,-14.80774917723747,0.6431632653061214,75
1764815370.3217797,172001,1.2317,39.12,-14.80774917723747,0.783163265306122,75
1764815370.4254158,172101,1.2366,39.12,-14.468833833378145,0.783163265306122,75
1764815370.5278947,172201,1.2366,38.78,-14.468833833378145,0.4431632653061257,75
1764815370.6299498,172301,1.2366,39.07,-14.468833833378145,0.7331632653061249,75
1764815370.7318628,172401,1.2366,39.12,-14.468833833378145,0.783163265306122,75
1764815370.8343828,172501,1.2366,38.93,-14.468833833378145,0.5931632653061243,75
1764815370.9373994,172601,1.2366,39.07,-14.468833833378145,0.7331632653061249,75
1764815371.0396566,172701,1.2366,38.73,-14.468833833378145,0.39316326530612145,75
1764815371.1423924,172801,1.2317,38.83,-14.80774917723747,0.49316326530612287,75
1764815371.2441409,172901,1.2268,39.46,-15.146664521096806,1.1231632653061254,75
1764815371.3459284,173001,1.2317,38.83,-14.80774917723747,0.49316326530612287,75
1764815371.4485693,173101,1.2268,39.12,-15.146664521096806,0.783163265306122,75
1764815371.5505335,173201,1.2317,38.88,-14.80774917723747,0.5431632653061271,75
1764815371.6525915,173301,1.2317,39.07,-14.80774917723747,0.7331632653061249,75
1764815371.7552772,173401,1.2317,38.88,-14.80774917723747,0.5431632653061271,75
1764815371.8573582,173501,1.2366,38.83,-14.468833833378145,0.49316326530612287,75
1764815371.959114,173601,1.2317,38.93,-14.80774917723747,0.5931632653061243,70
1764815372.061051,173701,1.2414,39.12,-14.136835129189404,0.783163265306122,65
1764815372.1630483,173801,1.2366,38.98,-14.468833833378145,0.6431632653061214,59
1764815372.2647157,173901,1.2366,38.88,-14.468833833378145,0.5431632653061271,54
1764815372.366548,174001,1.2414,39.02,-14.136835129189404,0.6831632653061277,49
1764815372.468462,174101,1.2366,39.02,-14.468833833378145,0.6831632653061277,48
1764815372.5716052,174201,1.2463,38.83,-13.797919785330082,0.49316326530612287,47
1764815372.6740193,174301,1.2512,38.88,-13.459004441470743,0.5431632653061271,47
1764815372.7759483,174401,1.2512,39.17,-13.459004441470743,0.8331632653061263,46
1764815372.87761,174501,1.2366,38.83,-14.468833833378145,0.49316326530612287,47
1764815372.9796093,174601,1.2366,38.88,-14.468833833378145,0.5431632653061271,48
1764815373.0820851,174701,1.2317,38.45,-14.80774917723747,0.11316326530612741,50
1764815373.1840563,174801,1.2414,38.83,-14.136835129189404,0.49316326530612287,51
1764815373.2861624,174901,1.2366,38.83,-14.468833833378145,0.49316326530612287,52
1764815373.388689,175001,1.2366,38.73,-14.468833833378145,0.39316326530612145,52
1764815373.4910703,175101,1.2366,38.78,-14.468833833378145,0.4431632653061257,52
1764815373.5926812,175201,1.2366,39.07,-14.468833833378145,0.7331632653061249,52
1764815373.6941614,175301,1.2414,39.12,-14.136835129189404,0.783163265306122,52
1764815373.7963817,175401,1.2463,38.98,-13.797919785330082,0.6431632653061214,52
1764815373.8979194,175501,1.2463,38.83,-13.797919785330082,0.49316326530612287,52
1764815373.9997175,175601,1.2512,39.12,-13.459004441470743,0.783163265306122,52
1764815374.1018827,175701,1.2512,39.12,-13.459004441470743,0.783163265306122,52
1764815374.2048476,175801,1.2463,38.93,-13.797919785330082,0.5931632653061243,52
1764815374.3066723,175901,1.2463,38.83,-13.797919785330082,0.49316326530612287,52
1764815374.4086413,176001,1.2414,39.12,-14.136835129189404,0.783163265306122,52
1764815374.5105827,176101,1.2414,39.12,-14.136835129189404,0.783163265306122,52
1764815374.6140265,176201,1.2414,39.22,-14.136835129189404,0.8831632653061234,52
1764815374.716269,176301,1.2414,39.12,-14.136835129189404,0.783163265306122,52
1764815374.818159,176401,1.2366,38.98,-14.468833833378145,0.6431632653061214,52
1764815374.9202614,176501,1.2366,39.17,-14.468833833378145,0.8331632653061263,52
1764815375.0223339,176601,1.2317,39.12,-14.80774917723747,0.783163265306122,52
1764815375.124164,176701,1.2268,38.98,-15.146664521096806,0.6431632653061214,52
1764815375.2265248,176801,1.2219,38.98,-15.485579864956131,0.6431632653061214,52
1764815375.328483,176901,1.2121,38.98,-16.163410552674794,0.6431632653061214,52
1764815375.430534,177001,1.217,39.12,-15.824495208815453,0.783163265306122,52
1764815375.532732,177101,1.2219,38.78,-15.485579864956131,0.4431632653061257,52
1764815375.6353452,177201,1.2317,38.78,-14.80774917723747,0.4431632653061257,52
1764815375.738229,177301,1.2366,39.17,-14.468833833378145,0.8331632653061263,52
1764815375.8403177,177401,1.2414,39.17,-14.136835129189404,0.8331632653061263,52
1764815375.9433606,177501,1.2463,39.12,-13.797919785330082,0.783163265306122,52
1764815376.0450652,177601,1.2512,39.07,-13.459004441470743,0.7331632653061249,52
1764815376.1466105,177701,1.2512,39.17,-13.459004441470743,0.8331632653061263,52
1764815376.2491937,177801,1.2512,38.73,-13.459004441470743,0.39316326530612145,52
1764815376.351525,177901,1.2512,38.88,-13.459004441470743,0.5431632653061271,52
1764815376.4531937,178001,1.2512,39.02,-13.459004441470743,0.6831632653061277,52
1764815376.5558362,178101,1.2463,38.78,-13.797919785330082,0.4431632653061257,52
1764815376.6579487,178201,1.2512,38.93,-13.459004441470743,0.5931632653061243,52
1764815376.7604172,178301,1.2512,38.98,-13.459004441470743,0.6431632653061214,52
1764815376.862312,178401,1.2561,38.88,-13.12008909761142,0.5431632653061271,52
1764815376.9651096,178501,1.2561,39.07,-13.12008909761142,0.7331632653061249,52
1764815377.0672052,178601,1.2512,39.07,-13.459004441470743,0.7331632653061249,52
1764815377.1689699,178701,1.2512,38.83,-13.459004441470743,0.49316326530612287,51
1764815377.270744,178801,1.2512,39.12,-13.459004441470743,0.783163265306122,49
1764815377.3729374,178901,1.2512,38.98,-13.459004441470743,0.6431632653061214,47
1764815377.4751058,179001,1.2512,38.73,-13.459004441470743,0.39316326530612145,45
1764815377.5773444,179101,1.2512,38.98,-13.459004441470743,0.6431632653061214,43
1764815377.6790965,179201,1.2512,39.27,-13.459004441470743,0.9331632653061277,43
1764815377.7810357,179301,1.2561,39.07,-13.12008909761142,0.7331632653061249,43
1764815377.8831346,179401,1.2561,39.22,-13.12008909761142,0.8831632653061234,43
1764815377.9850652,179501,1.2561,39.07,-13.12008909761142,0.7331632653061249,43
1764815378.0866797,179601,1.2561,38.88,-13.12008909761142,0.5431632653061271,43
1764815378.18947,179701,1.261,38.98,-12.781173753752098,0.6431632653061214,43
1764815378.2919478,179801,1.2512,39.07,-13.459004441470743,0.7331632653061249,44
1764815378.393938,179901,1.2512,38.93,-13.459004441470743,0.5931632653061243,44
1764815378.496477,180001,1.2463,38.88,-13.797919785330082,0.5431632653061271,44
1764815378.598922,180101,1.2512,39.02,-13.459004441470743,0.6831632653061277,44
1764815378.7010152,180201,1.2512,39.02,-13.459004441470743,0.6831632653061277,44
1764815378.8038023,180301,1.2512,38.78,-13.459004441470743,0.4431632653061257,44
1764815378.905623,180401,1.2512,38.83,-13.459004441470743,0.49316326530612287,44
1764815379.0075116,180501,1.2512,38.93,-13.459004441470743,0.5931632653061243,44
1764815379.1101656,180601,1.2561,39.07,-13.12008909761142,0.7331632653061249,44
1764815379.2125509,180701,1.2561,38.88,-13.12008909761142,0.5431632653061271,44
1764815379.314133,180801,1.2512,38.98,-13.459004441470743,0.6431632653061214,45
1764815379.4162755,180901,1.2463,38.98,-13.797919785330082,0.6431632653061214,45
1764815379.5178175,181001,1.2463,39.02,-13.797919785330082,0.6831632653061277,46
1764815379.6195643,181101,1.2414,38.83,-14.136835129189404,0.49316326530612287,46
1764815379.721189,181201,1.2512,38.88,-13.459004441470743,0.5431632653061271,47
1764815379.8229473,181301,1.2414,39.17,-14.136835129189404,0.8331632653061263,48
1764815379.9246523,181401,1.2366,39.12,-14.468833833378145,0.783163265306122,49
1764815380.027745,181501,1.2366,39.07,-14.468833833378145,0.7331632653061249,50
1764815380.1301308,181601,1.2414,38.78,-14.136835129189404,0.4431632653061257,51
1764815380.232296,181701,1.2414,38.78,-14.136835129189404,0.4431632653061257,52
1764815380.3343806,181801,1.2414,39.07,-14.136835129189404,0.7331632653061249,52
1764815380.4364834,181901,1.2463,39.12,-13.797919785330082,0.783163265306122,52
1764815380.5385463,182001,1.2463,38.98,-13.797919785330082,0.6431632653061214,52
1764815380.6410508,182101,1.2463,38.88,-13.797919785330082,0.5431632653061271,52
1764815380.7439084,182201,1.2512,39.17,-13.459004441470743,0.8331632653061263,52
1764815380.8462157,182301,1.2463,38.88,-13.797919785330082,0.5431632653061271,52
1764815380.9486196,182401,1.2463,38.78,-13.797919785330082,0.4431632653061257,52
1764815381.051436,182501,1.2366,39.07,-14.468833833378145,0.7331632653061249,52
1764815381.1533418,182601,1.2414,38.98,-14.136835129189404,0.6431632653061214,52
1764815381.2580273,182701,1.2414,38.78,-14.136835129189404,0.4431632653061257,53
1764815381.3605819,182801,1.2414,39.17,-14.136835129189404,0.8331632653061263,53
1764815381.4633331,182901,1.2414,39.07,-14.136835129189404,0.7331632653061249,53
1764815381.5661159,183001,1.2414,38.98,-14.136835129189404,0.6431632653061214,53
1764815381.6681805,183101,1.2414,38.83,-14.136835129189404,0.49316326530612287,53
1764815381.7710257,183201,1.2414,38.93,-14.136835129189404,0.5931632653061243,53
1764815381.8730154,183301,1.2414,39.02,-14.136835129189404,0.6831632653061277,53
1764815381.974667,183401,1.2414,39.17,-14.136835129189404,0.8331632653061263,53
1764815382.0761685,183501,1.2366,39.02,-14.468833833378145,0.6831632653061277,53
1764815382.1779692,183601,1.2366,39.07,-14.468833833378145,0.7331632653061249,53
1764815382.279995,183701,1.2366,38.78,-14.468833833378145,0.4431632653061257,53
1764815382.3828692,183801,1.2317,38.78,-14.80774917723747,0.4431632653061257,53
1764815382.4847834,183901,1.2366,39.12,-14.468833833378145,0.783163265306122,53
1764815382.5871186,184001,1.2317,39.02,-14.80774917723747,0.6831632653061277,53
1764815382.690679,184101,1.2366,38.93,-14.468833833378145,0.5931632653061243,53
1764815382.7929,184201,1.2366,39.12,-14.468833833378145,0.783163265306122,53
1764815382.8947,184301,1.2414,38.88,-14.136835129189404,0.5431632653061271,53
1764815382.997066,184401,1.2366,39.12,-14.468833833378145,0.783163265306122,53
1764815383.0997252,184501,1.2414,38.88,-14.136835129189404,0.5431632653061271,54
1764815383.2016134,184601,1.2317,39.02,-14.80774917723747,0.6831632653061277,54
1764815383.3032064,184701,1.2317,38.93,-14.80774917723747,0.5931632653061243,54
1764815383.4054003,184801,1.2366,39.12,-14.468833833378145,0.783163265306122,54
1764815383.5075276,184901,1.2317,39.02,-14.80774917723747,0.6831632653061277,54
1764815383.609348,185001,1.2317,39.07,-14.80774917723747,0.7331632653061249,54
1764815383.7116346,185101,1.2317,38.98,-14.80774917723747,0.6431632653061214,54
1764815383.8142428,185201,1.2317,39.07,-14.80774917723747,0.7331632653061249,54
1764815383.9169846,185301,1.2268,39.22,-15.146664521096806,0.8831632653061234,54
1764815384.0186863,185401,1.2268,38.83,-15.146664521096806,0.49316326530612287,54
1764815384.1206343,185501,1.2268,39.02,-15.146664521096806,0.6831632653061277,57
1764815384.2226236,185601,1.2268,39.22,-15.146664521096806,0.8831632653061234,59
1764815384.3245788,185701,1.2219,39.31,-15.485579864956131,0.9731632653061268,62
1764815384.4266365,185801,1.2219,39.22,-15.485579864956131,0.8831632653061234,65
1764815384.5291402,185901,1.2219,39.07,-15.485579864956131,0.7331632653061249,68
1764815384.6331427,186001,1.2219,39.07,-15.485579864956131,0.7331632653061249,68
1764815384.7347713,186101,1.2219,38.93,-15.485579864956131,0.5931632653061243,68
1764815384.8363793,186201,1.2219,39.17,-15.485579864956131,0.8331632653061263,68
1764815384.9386275,186301,1.2268,39.02,-15.146664521096806,0.6831632653061277,68
1764815385.040156,186401,1.2219,39.17,-15.485579864956131,0.8331632653061263,68
1764815385.142593,186501,1.2219,38.98,-15.485579864956131,0.6431632653061214,68
1764815385.2444744,186601,1.2121,39.17,-16.163410552674794,0.8331632653061263,68
1764815385.3470092,186701,1.217,38.88,-15.824495208815453,0.5431632653061271,68
1764815385.4494867,186801,1.2219,39.07,-15.485579864956131,0.7331632653061249,68
1764815385.5516188,186901,1.2268,38.93,-15.146664521096806,0.5931632653061243,68
1764815385.653817,187001,1.2268,39.27,-15.146664521096806,0.9331632653061277,68
1764815385.7557874,187101,1.2268,38.88,-15.146664521096806,0.5431632653061271,68
1764815385.8577044,187201,1.2219,38.78,-15.485579864956131,0.4431632653061257,68
1764815385.9600198,187301,1.2219,38.98,-15.485579864956131,0.6431632653061214,68
1764815386.0619946,187401,1.2219,38.83,-15.485579864956131,0.49316326530612287,68
1764815386.1644769,187501,1.2268,38.88,-15.146664521096806,0.5431632653061271,67
1764815386.266127,187601,1.2317,39.12,-14.80774917723747,0.783163265306122,66
1764815386.3679998,187701,1.2268,39.17,-15.146664521096806,0.8331632653061263,65
1764815386.4695828,187801,1.2219,38.83,-15.485579864956131,0.49316326530612287,64
1764815386.571895,187901,1.217,38.93,-15.824495208815453,0.5931632653061243,63
1764815386.674033,188001,1.217,38.98,-15.824495208815453,0.6431632653061214,63
1764815386.7762516,188101,1.2219,38.98,-15.485579864956131,0.6431632653061214,63
1764815386.8790178,188201,1.2268,38.78,-15.146664521096806,0.4431632653061257,63
1764815386.9822395,188301,1.2268,38.93,-15.146664521096806,0.5931632653061243,64
1764815387.084721,188401,1.2268,39.07,-15.146664521096806,0.7331632653061249,66
1764815387.1870615,188501,1.2268,38.98,-15.146664521096806,0.6431632653061214,68
1764815387.2903736,188601,1.2219,38.83,-15.485579864956131,0.49316326530612287,70
1764815387.3926442,188701,1.217,38.83,-15.824495208815453,0.49316326530612287,72
1764815387.4944246,188801,1.2121,39.02,-16.163410552674794,0.6831632653061277,72
1764815387.5972877,188901,1.2072,38.83,-16.502325896534114,0.49316326530612287,72
1764815387.6993635,189001,1.2072,38.83,-16.502325896534114,0.49316326530612287,72
1764815387.8017933,189101,1.2121,39.07,-16.163410552674794,0.7331632653061249,70
1764815387.904227,189201,1.2219,39.22,-15.485579864956131,0.8831632653061234,68
1764815388.0066252,189301,1.2268,39.07,-15.146664521096806,0.7331632653061249,66
1764815388.109221,189401,1.2268,38.78,-15.146664521096806,0.4431632653061257,64
1764815388.2111163,189501,1.2219,38.88,-15.485579864956131,0.5431632653061271,62
1764815388.3153884,189601,1.2219,38.88,-15.485579864956131,0.5431632653061271,62
1764815388.4175339,189701,1.217,39.17,-15.824495208815453,0.8331632653061263,62
1764815388.5198836,189801,1.2121,38.88,-16.163410552674794,0.5431632653061271,61
1764815388.6221268,189901,1.2121,38.78,-16.163410552674794,0.4431632653061257,61
1764815388.7247632,190001,1.2121,39.02,-16.163410552674794,0.6831632653061277,61
1764815388.8280747,190101,1.2121,38.78,-16.163410552674794,0.4431632653061257,61
1764815388.9323468,190201,1.2072,38.78,-16.502325896534114,0.4431632653061257,61
1764815389.0347486,190301,1.2072,39.17,-16.502325896534114,0.8331632653061263,61
1764815389.1368847,190401,1.217,38.93,-15.824495208815453,0.5931632653061243,64
1764815389.238654,190501,1.2268,38.83,-15.146664521096806,0.49316326530612287,66
1764815389.341161,190601,1.217,39.17,-15.824495208815453,0.8331632653061263,69
1764815389.443727,190701,1.2268,38.93,-15.146664521096806,0.5931632653061243,71
1764815389.5460365,190801,1.2219,39.12,-15.485579864956131,0.783163265306122,73
1764815389.6475892,190901,1.2268,38.98,-15.146664521096806,0.6431632653061214,72
1764815389.74939,191001,1.2317,38.93,-14.80774917723747,0.5931632653061243,72
1764815389.8518102,191101,1.2317,39.07,-14.80774917723747,0.7331632653061249,73
1764815389.9540813,191201,1.2317,39.02,-14.80774917723747,0.6831632653061277,74
1764815390.0562959,191301,1.2317,39.22,-14.80774917723747,0.8831632653061234,76
1764815390.1586661,191401,1.2317,39.17,-14.80774917723747,0.8331632653061263,77
1764815390.262117,191501,1.2268,39.12,-15.146664521096806,0.783163265306122,78
1764815390.3650491,191601,1.2268,39.17,-15.146664521096806,0.8331632653061263,78
1764815390.4671464,191701,1.2317,39.27,-14.80774917723747,0.9331632653061277,78
1764815390.5703065,191801,1.2268,39.12,-15.146664521096806,0.783163265306122,78
1764815390.672491,191901,1.2317,39.17,-14.80774917723747,0.8331632653061263,78
1764815390.7742743,192001,1.2317,39.02,-14.80774917723747,0.6831632653061277,78
1764815390.8798933,192101,1.2366,38.98,-14.468833833378145,0.6431632653061214,78
1764815390.9818206,192201,1.2366,38.83,-14.468833833378145,0.49316326530612287,78
1764815391.0846336,192301,1.2414,39.22,-14.136835129189404,0.8831632653061234,79
1764815391.1867998,192401,1.2317,39.07,-14.80774917723747,0.7331632653061249,79
1764815391.289436,192501,1.2317,38.98,-14.80774917723747,0.6431632653061214,79
1764815391.391546,192601,1.2366,39.17,-14.468833833378145,0.8331632653061263,79
1764815391.4942148,192701,1.2317,38.93,-14.80774917723747,0.5931632653061243,79
1764815391.5979598,192801,1.2366,39.22,-14.468833833378145,0.8831632653061234,79
1764815391.6999292,192901,1.2366,38.78,-14.468833833378145,0.4431632653061257,79
1764815391.8021722,193001,1.2366,38.93,-14.468833833378145,0.5931632653061243,79
1764815391.9039707,193101,1.2366,38.93,-14.468833833378145,0.5931632653061243,79
1764815392.0061588,193201,1.2414,38.88,-14.136835129189404,0.5431632653061271,79
1764815392.1097505,193301,1.2414,38.98,-14.136835129189404,0.6431632653061214,79
1764815392.2121577,193401,1.2561,38.88,-13.12008909761142,0.5431632653061271,79
1764815392.3142169,193501,1.261,38.88,-12.781173753752098,0.5431632653061271,79
1764815392.4159398,193601,1.2659,39.17,-12.442258409892759,0.8331632653061263,79
1764815392.5180948,193701,1.2659,38.93,-12.442258409892759,0.5931632653061243,79
1764815392.6202042,193801,1.2708,39.07,-12.103343066033435,0.7331632653061249,79
1764815392.7222807,193901,1.2659,39.17,-12.442258409892759,0.8331632653061263,79
1764815392.8240092,194001,1.2659,38.98,-12.442258409892759,0.6431632653061214,79
1764815392.9277217,194101,1.2561,38.78,-13.12008909761142,0.4431632653061257,79
1764815393.0293038,194201,1.2561,38.93,-13.12008909761142,0.5931632653061243,79
1764815393.1317415,194301,1.261,38.78,-12.781173753752098,0.4431632653061257,79
1764815393.2335641,194401,1.2561,39.02,-13.12008909761142,0.6831632653061277,79
1764815393.335583,194501,1.2512,39.07,-13.459004441470743,0.7331632653061249,79
1764815393.4382184,194601,1.2512,39.12,-13.459004441470743,0.783163265306122,79
1764815393.5401723,194701,1.2512,38.78,-13.459004441470743,0.4431632653061257,79
1764815393.6433823,194801,1.2366,38.78,-14.468833833378145,0.4431632653061257,79
1764815393.745074,194901,1.2317,38.78,-14.80774917723747,0.4431632653061257,79
1764815393.8468206,195001,1.2268,38.88,-15.146664521096806,0.5431632653061271,79
1764815393.948949,195101,1.217,39.02,-15.824495208815453,0.6831632653061277,79
1764815394.0509791,195201,1.2317,38.88,-14.80774917723747,0.5431632653061271,79
1764815394.1530254,195301,1.2317,38.98,-14.80774917723747,0.6431632653061214,79
1764815394.2546892,195401,1.2268,38.73,-15.146664521096806,0.39316326530612145,79
1764815394.357082,195501,1.2268,39.07,-15.146664521096806,0.7331632653061249,79
1764815394.4609487,195601,1.2219,39.02,-15.485579864956131,0.6831632653061277,79
1764815394.5636516,195701,1.2219,39.17,-15.485579864956131,0.8331632653061263,79
1764815394.6657827,195801,1.2219,39.12,-15.485579864956131,0.783163265306122,79
1764815394.7680447,195901,1.2219,39.22,-15.485579864956131,0.8831632653061234,79
1764815394.8697324,196001,1.2268,39.17,-15.146664521096806,0.8331632653061263,79
1764815394.9721384,196101,1.2317,38.93,-14.80774917723747,0.5931632653061243,79
1764815395.0748794,196201,1.2317,39.22,-14.80774917723747,0.8831632653061234,79
1764815395.1772316,196301,1.2414,39.17,-14.136835129189404,0.8331632653061263,79
1764815395.2789423,196401,1.2414,38.83,-14.136835129189404,0.49316326530612287,79
1764815395.3806264,196501,1.2414,39.17,-14.136835129189404,0.8331632653061263,79
1764815395.482402,196601,1.2414,39.12,-14.136835129189404,0.783163265306122,79
1764815395.5846853,196701,1.2463,38.78,-13.797919785330082,0.4431632653061257,79
1764815395.686134,196801,1.2414,39.02,-14.136835129189404,0.6831632653061277,79
1764815395.7883818,196901,1.2414,39.02,-14.136835129189404,0.6831632653061277,79
1764815395.890765,197001,1.2512,39.12,-13.459004441470743,0.783163265306122,79
1764815395.993034,197101,1.2512,38.83,-13.459004441470743,0.49316326530612287,79
1764815396.0947556,197201,1.2512,38.78,-13.459004441470743,0.4431632653061257,79
1764815396.1964447,197301,1.2512,39.07,-13.459004441470743,0.7331632653061249,79
1764815396.2988732,197401,1.2512,39.17,-13.459004441470743,0.8331632653061263,79
1764815396.4015462,197501,1.2512,38.93,-13.459004441470743,0.5931632653061243,79
1764815396.503084,197601,1.2463,39.17,-13.797919785330082,0.8331632653061263,79
1764815396.6052644,197701,1.2463,38.83,-13.797919785330082,0.49316326530612287,79
1764815396.7087424,197801,1.2512,38.83,-13.459004441470743,0.49316326530612287,79
1764815396.811247,197901,1.2512,38.98,-13.459004441470743,0.6431632653061214,79
1764815396.9146688,198001,1.2512,39.07,-13.459004441470743,0.7331632653061249,79
1764815397.0169184,198101,1.2512,39.27,-13.459004441470743,0.9331632653061277,79
1764815397.1191177,198201,1.2463,38.83,-13.797919785330082,0.49316326530612287,79
1764815397.2211523,198301,1.2414,39.02,-14.136835129189404,0.6831632653061277,79
1764815397.3252475,198401,1.2512,38.88,-13.459004441470743,0.5431632653061271,79
1764815397.4274235,198501,1.2463,38.83,-13.797919785330082,0.49316326530612287,79
1764815397.5303426,198601,1.2512,39.17,-13.459004441470743,0.8331632653061263,79
1764815397.6326237,198701,1.2512,38.93,-13.459004441470743,0.5931632653061243,79
1764815397.734679,198801,1.2561,39.12,-13.12008909761142,0.783163265306122,79
1764815397.8372593,198901,1.2561,39.22,-13.12008909761142,0.8831632653061234,79
1764815397.9431736,199001,1.261,39.02,-12.781173753752098,0.6831632653061277,79
1764815398.0451999,199101,1.261,38.83,-12.781173753752098,0.49316326530612287,79
1764815398.147008,199201,1.2561,39.22,-13.12008909761142,0.8831632653061234,79
1764815398.248807,199301,1.2561,39.02,-13.12008909761142,0.6831632653061277,79
1764815398.351495,199401,1.2512,39.17,-13.459004441470743,0.8331632653061263,79
1764815398.4533134,199501,1.2512,39.27,-13.459004441470743,0.9331632653061277,79
1764815398.555633,199601,1.2512,39.22,-13.459004441470743,0.8831632653061234,79
1764815398.6586652,199701,1.2463,38.83,-13.797919785330082,0.49316326530612287,79
1764815398.7621586,199801,1.2512,39.07,-13.459004441470743,0.7331632653061249,79
1764815398.86409,199901,1.2512,38.88,-13.459004441470743,0.5431632653061271,79
1764815398.9657662,200001,1.2512,39.22,-13.459004441470743,0.8831632653061234,79
1764815399.0681217,200101,1.2512,38.88,-13.459004441470743,0.5431632653061271,79
1764815399.1705482,200201,1.2414,38.83,-14.136835129189404,0.49316326530612287,79
1764815399.2738695,200301,1.2366,38.78,-14.468833833378145,0.4431632653061257,79
1764815399.3759933,200401,1.2268,39.17,-15.146664521096806,0.8331632653061263,79
1764815399.4776874,200501,1.2414,38.93,-14.136835129189404,0.5931632653061243,79
1764815399.579659,200601,1.2463,39.02,-13.797919785330082,0.6831632653061277,79
1764815399.6815114,200701,1.2512,39.17,-13.459004441470743,0.8331632653061263,79
1764815399.784029,200801,1.2512,39.27,-13.459004441470743,0.9331632653061277,79
1764815399.8864424,200901,1.2512,39.22,-13.459004441470743,0.8831632653061234,79
1764815399.9895644,201001,1.2463,39.22,-13.797919785330082,0.8831632653061234,72
1764815400.0926404,201101,1.2414,39.41,-14.136835129189404,1.0731632653061212,65
1764815400.1946054,201201,1.2268,39.02,-15.146664521096806,0.6831632653061277,57
1764815400.2966833,201301,1.2414,39.17,-14.136835129189404,0.8331632653061263,50
1764815400.3986797,201401,1.2268,39.12,-15.146664521096806,0.783163265306122,42
1764815400.5013843,201501,1.2366,39.07,-14.468833833378145,0.7331632653061249,42
1764815400.6033235,201601,1.2414,38.98,-14.136835129189404,0.6431632653061214,42
1764815400.7061932,201701,1.2463,39.07,-13.797919785330082,0.7331632653061249,42
1764815400.807844,201801,1.2512,38.93,-13.459004441470743,0.5931632653061243,42
1764815400.9099135,201901,1.2463,38.88,-13.797919785330082,0.5431632653061271,43
1764815401.0117211,202001,1.2512,38.98,-13.459004441470743,0.6431632653061214,43
1764815401.1133058,202101,1.2512,39.02,-13.459004441470743,0.6831632653061277,44
1764815401.2151186,202201,1.2512,38.98,-13.459004441470743,0.6431632653061214,44
1764815401.3171995,202301,1.2512,39.07,-13.459004441470743,0.7331632653061249,44
1764815401.4197602,202401,1.2561,39.17,-13.12008909761142,0.8331632653061263,44
1764815401.5223958,202501,1.2561,39.17,-13.12008909761142,0.8331632653061263,44
1764815401.624313,202601,1.2512,39.22,-13.459004441470743,0.8831632653061234,44
1764815401.7263937,202701,1.2414,39.17,-14.136835129189404,0.8331632653061263,44
1764815401.828511,202801,1.2414,39.07,-14.136835129189404,0.7331632653061249,44
1764815401.9311657,202901,1.2414,39.02,-14.136835129189404,0.6831632653061277,44
1764815402.0333905,203001,1.2414,38.93,-14.136835129189404,0.5931632653061243,44
1764815402.1355195,203101,1.2463,38.88,-13.797919785330082,0.5431632653061271,44
1764815402.2378983,203201,1.2463,39.17,-13.797919785330082,0.8331632653061263,44
1764815402.3412895,203301,1.2414,39.22,-14.136835129189404,0.8831632653061234,44
1764815402.4434173,203401,1.2512,38.83,-13.459004441470743,0.49316326530612287,44
1764815402.545348,203501,1.261,39.17,-12.781173753752098,0.8331632653061263,44
1764815402.647723,203601,1.2659,38.83,-12.442258409892759,0.49316326530612287,44
1764815402.7503035,203701,1.2708,39.17,-12.103343066033435,0.8331632653061263,44
1764815402.852723,203801,1.2659,39.07,-12.442258409892759,0.7331632653061249,44
1764815402.9567616,203901,1.2708,38.88,-12.103343066033435,0.5431632653061271,44
1764815403.0587518,204001,1.2708,38.93,-12.103343066033435,0.5931632653061243,44
1764815403.161138,204101,1.261,38.98,-12.781173753752098,0.6431632653061214,44
1764815403.2634933,204201,1.2561,38.88,-13.12008909761142,0.5431632653061271,44
1764815403.3664374,204301,1.2512,39.07,-13.459004441470743,0.7331632653061249,44
1764815403.4694924,204401,1.2512,39.17,-13.459004441470743,0.8331632653061263,44
1764815403.572585,204501,1.2512,38.83,-13.459004441470743,0.49316326530612287,44
1764815403.6752717,204601,1.2512,38.98,-13.459004441470743,0.6431632653061214,44
1764815403.7769866,204701,1.2414,38.78,-14.136835129189404,0.4431632653061257,44
1764815403.878828,204801,1.2414,39.12,-14.136835129189404,0.783163265306122,44
1764815403.9809465,204901,1.2512,38.78,-13.459004441470743,0.4431632653061257,44
1764815404.0830336,205001,1.2463,38.88,-13.797919785330082,0.5431632653061271,44
1764815404.185187,205101,1.2463,39.22,-13.797919785330082,0.8831632653061234,44
1764815404.2877526,205201,1.2512,38.88,-13.459004441470743,0.5431632653061271,44
1764815404.391151,205301,1.2414,38.98,-14.136835129189404,0.6431632653061214,44
1764815404.4939406,205401,1.2414,38.83,-14.136835129189404,0.49316326530612287,44
1764815404.5959332,205501,1.2414,39.02,-14.136835129189404,0.6831632653061277,44
1764815404.6982975,205601,1.2366,39.22,-14.468833833378145,0.8831632653061234,44
1764815404.8005962,205701,1.2317,38.98,-14.80774917723747,0.6431632653061214,44
1764815404.9026108,205801,1.2317,39.12,-14.80774917723747,0.783163265306122,44
1764815405.0050535,205901,1.2317,39.22,-14.80774917723747,0.8831632653061234,44
1764815405.1075478,206001,1.2366,38.78,-14.468833833378145,0.4431632653061257,44
1764815405.2102358,206101,1.2268,39.02,-15.146664521096806,0.6831632653061277,44
1764815405.3124707,206201,1.2268,39.07,-15.146664521096806,0.7331632653061249,44
1764815405.4150481,206301,1.2219,38.98,-15.485579864956131,0.6431632653061214,44
1764815405.5170884,206401,1.2317,39.02,-14.80774917723747,0.6831632653061277,44
1764815405.6194715,206501,1.2317,38.88,-14.80774917723747,0.5431632653061271,44
1764815405.7215283,206601,1.2268,39.07,-15.146664521096806,0.7331632653061249,44
1764815405.8236027,206701,1.2268,39.07,-15.146664521096806,0.7331632653061249,44
1764815405.9253817,206801,1.2121,38.93,-16.163410552674794,0.5931632653061243,44
1764815406.027392,206901,1.2268,39.12,-15.146664521096806,0.783163265306122,44
1764815406.1295109,207001,1.2219,38.88,-15.485579864956131,0.5431632653061271,44
1764815406.231296,207101,1.2219,38.98,-15.485579864956131,0.6431632653061214,44
1764815406.33332,207201,1.2219,39.07,-15.485579864956131,0.7331632653061249,44
1764815406.437082,207301,1.2219,38.98,-15.485579864956131,0.6431632653061214,48
1764815406.5398107,207401,1.2219,38.93,-15.485579864956131,0.5931632653061243,51
1764815406.6430218,207501,1.2219,38.98,-15.485579864956131,0.6431632653061214,55
1764815406.7452517,207601,1.217,39.07,-15.824495208815453,0.7331632653061249,58
1764815406.8477764,207701,1.2219,39.07,-15.485579864956131,0.7331632653061249,62
1764815406.951113,207801,1.2268,39.17,-15.146664521096806,0.8331632653061263,62
1764815407.0542748,207901,1.2317,38.98,-14.80774917723747,0.6431632653061214,63
1764815407.1571398,208001,1.2268,39.17,-15.146664521096806,0.8331632653061263,64
1764815407.2589507,208101,1.2317,39.07,-14.80774917723747,0.7331632653061249,64
1764815407.3604975,208201,1.2268,39.07,-15.146664521096806,0.7331632653061249,64
1764815407.462418,208301,1.2268,38.83,-15.146664521096806,0.49316326530612287,63
1764815407.5647097,208401,1.2219,39.02,-15.485579864956131,0.6831632653061277,61
1764815407.668575,208501,1.2268,39.07,-15.146664521096806,0.7331632653061249,60
1764815407.7706826,208601,1.2268,39.22,-15.146664521096806,0.8831632653061234,59
1764815407.8728757,208701,1.2268,39.27,-15.146664521096806,0.9331632653061277,58
1764815407.9759774,208801,1.2219,38.78,-15.485579864956131,0.4431632653061257,58
1764815408.0786047,208901,1.2219,38.88,-15.485579864956131,0.5431632653061271,58
1764815408.1808527,209001,1.2219,38.83,-15.485579864956131,0.49316326530612287,58
1764815408.2826524,209101,1.2219,38.98,-15.485579864956131,0.6431632653061214,59
1764815408.385269,209201,1.2219,39.07,-15.485579864956131,0.7331632653061249,59
1764815408.4893527,209301,1.2219,39.27,-15.485579864956131,0.9331632653061277,60
1764815408.5913815,209401,1.2268,39.12,-15.146664521096806,0.783163265306122,60
1764815408.6935163,209501,1.2317,39.07,-14.80774917723747,0.7331632653061249,61
1764815408.7954872,209601,1.2366,38.78,-14.468833833378145,0.4431632653061257,63
1764815408.8975456,209701,1.2366,38.93,-14.468833833378145,0.5931632653061243,65
1764815409.000726,209801,1.2414,38.93,-14.136835129189404,0.5931632653061243,68
1764815409.103337,209901,1.2414,38.83,-14.136835129189404,0.49316326530612287,71
1764815409.2063618,210001,1.2414,39.27,-14.136835129189404,0.9331632653061277,72
1764815409.3084264,210101,1.2414,38.88,-14.136835129189404,0.5431632653061271,73
1764815409.410867,210201,1.2414,38.78,-14.136835129189404,0.4431632653061257,73
1764815409.512859,210301,1.2366,38.83,-14.468833833378145,0.49316326530612287,73
1764815409.616746,210401,1.2366,38.78,-14.468833833378145,0.4431632653061257,73
1764815409.7197728,210501,1.2414,39.12,-14.136835129189404,0.783163265306122,73
1764815409.8218184,210601,1.2463,38.98,-13.797919785330082,0.6431632653061214,74
1764815409.9237218,210701,1.2512,39.22,-13.459004441470743,0.8831632653061234,74
1764815410.025967,210801,1.2512,38.93,-13.459004441470743,0.5931632653061243,75
1764815410.1284091,210901,1.2512,39.12,-13.459004441470743,0.783163265306122,76
1764815410.2313652,211001,1.2512,39.17,-13.459004441470743,0.8331632653061263,77
1764815410.3339076,211101,1.2512,39.02,-13.459004441470743,0.6831632653061277,77
1764815410.43648,211201,1.2463,38.83,-13.797919785330082,0.49316326530612287,77
1764815410.5382848,211301,1.2463,38.83,-13.797919785330082,0.49316326530612287,77
1764815410.6401575,211401,1.2512,38.73,-13.459004441470743,0.39316326530612145,77
1764815410.742638,211501,1.2366,38.78,-14.468833833378145,0.4431632653061257,77
1764815410.8447275,211601,1.261,38.88,-12.781173753752098,0.5431632653061271,77
1764815410.9466362,211701,1.261,39.17,-12.781173753752098,0.8331632653061263,77
1764815411.0495174,211801,1.261,39.17,-12.781173753752098,0.8331632653061263,77
1764815411.1522706,211901,1.2561,39.17,-13.12008909761142,0.8331632653061263,77
1764815411.2538009,212001,1.2561,38.83,-13.12008909761142,0.49316326530612287,77
1764815411.3559823,212101,1.2512,39.17,-13.459004441470743,0.8331632653061263,77
1764815411.4582686,212201,1.2512,39.07,-13.459004441470743,0.7331632653061249,77
1764815411.560852,212301,1.2512,38.88,-13.459004441470743,0.5431632653061271,77
1764815411.6627138,212401,1.2512,38.88,-13.459004441470743,0.5431632653061271,77
1764815411.7647421,212501,1.2512,38.93,-13.459004441470743,0.5931632653061243,77
1764815411.8678074,212601,1.2512,39.02,-13.459004441470743,0.6831632653061277,77
1764815411.9697654,212701,1.2512,39.02,-13.459004441470743,0.6831632653061277,77
1764815412.0716982,212801,1.2512,39.12,-13.459004441470743,0.783163265306122,77
1764815412.1734753,212901,1.2512,39.07,-13.459004441470743,0.7331632653061249,77
1764815412.275664,213001,1.2561,39.31,-13.12008909761142,0.9731632653061268,77
1764815412.3781207,213101,1.2561,39.22,-13.12008909761142,0.8831632653061234,77
1764815412.4807966,213201,1.2561,39.07,-13.12008909761142,0.7331632653061249,77
1764815412.5834484,213301,1.2561,39.22,-13.12008909761142,0.8831632653061234,77
1764815412.685893,213401,1.261,38.78,-12.781173753752098,0.4431632653061257,77
1764815412.787916,213501,1.2561,39.12,-13.12008909761142,0.783163265306122,77
1764815412.8905506,213601,1.2561,39.12,-13.12008909761142,0.783163265306122,77
1764815412.993852,213701,1.2512,39.07,-13.459004441470743,0.7331632653061249,77
1764815413.0960648,213801,1.2561,38.83,-13.12008909761142,0.49316326530612287,77
1764815413.1988218,213901,1.2561,38.88,-13.12008909761142,0.5431632653061271,77
1764815413.301873,214001,1.2561,39.12,-13.12008909761142,0.783163265306122,77
1764815413.4040077,214101,1.2561,38.98,-13.12008909761142,0.6431632653061214,77
1764815413.5063527,214201,1.2512,38.83,-13.459004441470743,0.49316326530612287,77
1764815413.6082408,214301,1.2561,38.93,-13.12008909761142,0.5931632653061243,77
1764815413.71058,214401,1.2512,38.83,-13.459004441470743,0.49316326530612287,77
1764815413.8132193,214501,1.2512,39.07,-13.459004441470743,0.7331632653061249,77
1764815413.9152474,214601,1.2512,39.17,-13.459004441470743,0.8331632653061263,77
1764815414.0181034,214701,1.2561,39.17,-13.12008909761142,0.8331632653061263,77
1764815414.1202078,214801,1.2512,39.17,-13.459004441470743,0.8331632653061263,77
1764815414.2231317,214901,1.2512,38.98,-13.459004441470743,0.6431632653061214,77
1764815414.325131,215001,1.2561,39.12,-13.12008909761142,0.783163265306122,77
1764815414.4274333,215101,1.2512,39.17,-13.459004441470743,0.8331632653061263,73
1764815414.5300798,215201,1.2561,38.83,-13.12008909761142,0.49316326530612287,69
1764815414.6329741,215301,1.2561,39.46,-13.12008909761142,1.1231632653061254,66
1764815414.735677,215401,1.2512,39.07,-13.459004441470743,0.7331632653061249,61
1764815414.8374965,215501,1.261,38.98,-12.781173753752098,0.6431632653061214,57
1764815414.9394245,215601,1.261,39.12,-12.781173753752098,0.783163265306122,56
1764815415.042774,215701,1.261,39.17,-12.781173753752098,0.8331632653061263,56
1764815415.1452007,215801,1.261,39.07,-12.781173753752098,0.7331632653061249,55
1764815415.2491145,215901,1.2659,39.12,-12.442258409892759,0.783163265306122,55
1764815415.3511803,216001,1.2659,38.93,-12.442258409892759,0.5931632653061243,55
1764815415.4533148,216101,1.2708,38.88,-12.103343066033435,0.5431632653061271,55
1764815415.555561,216201,1.2708,38.83,-12.103343066033435,0.49316326530612287,55
1764815415.657901,216301,1.2659,39.12,-12.442258409892759,0.783163265306122,56
1764815415.760298,216401,1.2708,38.78,-12.103343066033435,0.4431632653061257,55
1764815415.862903,216501,1.2659,39.17,-12.442258409892759,0.8331632653061263,54
1764815415.9673662,216601,1.2659,39.17,-12.442258409892759,0.8331632653061263,54
1764815416.06958,216701,1.2659,38.88,-12.442258409892759,0.5431632653061271,53
1764815416.171517,216801,1.2659,38.83,-12.442258409892759,0.49316326530612287,51
1764815416.273578,216901,1.2708,38.88,-12.103343066033435,0.5431632653061271,51
1764815416.3756835,217001,1.2659,38.98,-12.442258409892759,0.6431632653061214,52
1764815416.4789104,217101,1.2659,39.41,-12.442258409892759,1.0731632653061212,53
1764815416.5826106,217201,1.261,39.07,-12.781173753752098,0.7331632653061249,55
1764815416.6847026,217301,1.2659,38.93,-12.442258409892759,0.5931632653061243,56
1764815416.787254,217401,1.261,38.83,-12.781173753752098,0.49316326530612287,57
1764815416.8892884,217501,1.261,38.98,-12.781173753752098,0.6431632653061214,57
1764815416.991037,217601,1.261,39.27,-12.781173753752098,0.9331632653061277,57
1764815417.0943673,217701,1.2708,38.83,-12.103343066033435,0.49316326530612287,57
1764815417.198081,217801,1.2708,38.83,-12.103343066033435,0.49316326530612287,57
1764815417.3001523,217901,1.2708,38.98,-12.103343066033435,0.6431632653061214,57
1764815417.4019709,218001,1.2757,39.07,-11.764427722174096,0.7331632653061249,57
1764815417.5041513,218101,1.2757,39.07,-11.764427722174096,0.7331632653061249,57
1764815417.6064758,218201,1.2757,39.12,-11.764427722174096,0.783163265306122,57
1764815417.7093997,218301,1.2805,38.88,-11.43242901798537,0.5431632653061271,57
1764815417.8123002,218401,1.2805,39.07,-11.43242901798537,0.7331632653061249,57
1764815417.915229,218501,1.2805,39.17,-11.43242901798537,0.8331632653061263,57
1764815418.0172412,218601,1.2854,38.88,-11.093513674126033,0.5431632653061271,57
1764815418.119259,218701,1.2854,39.17,-11.093513674126033,0.8331632653061263,57
1764815418.2212842,218801,1.2805,39.27,-11.43242901798537,0.9331632653061277,55
1764815418.323769,218901,1.2805,38.83,-11.43242901798537,0.49316326530612287,53
1764815418.4268653,219001,1.2805,38.93,-11.43242901798537,0.5931632653061243,51
1764815418.5293438,219101,1.2805,39.27,-11.43242901798537,0.9331632653061277,49
1764815418.631972,219201,1.2805,39.07,-11.43242901798537,0.7331632653061249,48
1764815418.7350018,219301,1.2805,39.07,-11.43242901798537,0.7331632653061249,48
1764815418.8373196,219401,1.2805,38.93,-11.43242901798537,0.5931632653061243,48
1764815418.9397569,219501,1.2805,39.22,-11.43242901798537,0.8831632653061234,48
1764815419.0417426,219601,1.2757,39.17,-11.764427722174096,0.8331632653061263,48
1764815419.1441715,219701,1.2805,39.17,-11.43242901798537,0.8331632653061263,48
1764815419.2468565,219801,1.2805,39.02,-11.43242901798537,0.6831632653061277,48
1764815419.3488705,219901,1.2757,38.93,-11.764427722174096,0.5931632653061243,48
1764815419.4509754,220001,1.2805,38.93,-11.43242901798537,0.5931632653061243,48
1764815419.5530097,220101,1.2757,38.88,-11.764427722174096,0.5431632653061271,48
1764815419.6557698,220201,1.2757,39.07,-11.764427722174096,0.7331632653061249,48
1764815419.7581153,220301,1.2757,39.02,-11.764427722174096,0.6831632653061277,47
1764815419.860491,220401,1.2757,39.02,-11.764427722174096,0.6831632653061277,46
1764815419.9635913,220501,1.2708,39.12,-12.103343066033435,0.783163265306122,46
1764815420.0655644,220601,1.2757,38.88,-11.764427722174096,0.5431632653061271,46
1764815420.1684625,220701,1.2757,39.02,-11.764427722174096,0.6831632653061277,46
1764815420.270716,220801,1.2757,39.27,-11.764427722174096,0.9331632653061277,46
1764815420.3731897,220901,1.2757,39.27,-11.764427722174096,0.9331632653061277,46
1764815420.477054,221001,1.2757,39.02,-11.764427722174096,0.6831632653061277,46
1764815420.579305,221101,1.2659,39.17,-12.442258409892759,0.8331632653061263,47
1764815420.6814964,221201,1.2708,39.22,-12.103343066033435,0.8831632653061234,48
1764815420.783713,221301,1.2708,38.98,-12.103343066033435,0.6431632653061214,49
1764815420.88615,221401,1.2708,39.02,-12.103343066033435,0.6831632653061277,50
1764815420.988584,221501,1.2757,39.36,-11.764427722174096,1.023163265306124,51
1764815421.090974,221601,1.2708,39.27,-12.103343066033435,0.9331632653061277,53
1764815421.193885,221701,1.2708,39.27,-12.103343066033435,0.9331632653061277,55
1764815421.2957613,221801,1.2708,39.17,-12.103343066033435,0.8331632653061263,57
1764815421.397632,221901,1.2757,38.88,-11.764427722174096,0.5431632653061271,59
1764815421.4997807,222001,1.2659,39.27,-12.442258409892759,0.9331632653061277,60
1764815421.602565,222101,1.2708,39.17,-12.103343066033435,0.8331632653061263,59
1764815421.7050343,222201,1.2757,38.93,-11.764427722174096,0.5931632653061243,57
1764815421.807467,222301,1.2708,39.07,-12.103343066033435,0.7331632653061249,58
1764815421.9097893,222401,1.2708,39.07,-12.103343066033435,0.7331632653061249,59
1764815422.0135176,222501,1.2757,39.27,-11.764427722174096,0.9331632653061277,61
1764815422.1157186,222601,1.2757,39.02,-11.764427722174096,0.6831632653061277,64
1764815422.217765,222701,1.2757,39.22,-11.764427722174096,0.8831632653061234,66
1764815422.3208263,222801,1.2708,39.27,-12.103343066033435,0.9331632653061277,65
1764815422.4232757,222901,1.261,39.02,-12.781173753752098,0.6831632653061277,64
1764815422.5258167,223001,1.2512,39.02,-13.459004441470743,0.6831632653061277,62
1764815422.6289716,223101,1.2561,38.93,-13.12008909761142,0.5931632653061243,61
1764815422.7313175,223201,1.2512,39.17,-13.459004441470743,0.8331632653061263,60
1764815422.8335652,223301,1.2512,38.93,-13.459004441470743,0.5931632653061243,60
1764815422.9359727,223401,1.2561,38.98,-13.12008909761142,0.6431632653061214,60
1764815423.037719,223501,1.2561,39.07,-13.12008909761142,0.7331632653061249,60
1764815423.1398094,223601,1.2512,39.02,-13.459004441470743,0.6831632653061277,60
1764815423.2427487,223701,1.2414,38.98,-14.136835129189404,0.6431632653061214,60
1764815423.3460915,223801,1.2317,39.22,-14.80774917723747,0.8831632653061234,60
1764815423.4487581,223901,1.2366,39.07,-14.468833833378145,0.7331632653061249,60
1764815423.5514457,224001,1.2414,39.27,-14.136835129189404,0.9331632653061277,60
1764815423.6543949,224101,1.2512,39.02,-13.459004441470743,0.6831632653061277,60
1764815423.7574325,224201,1.2561,38.88,-13.12008909761142,0.5431632653061271,60
1764815423.8600671,224301,1.261,39.17,-12.781173753752098,0.8331632653061263,60
1764815423.9620543,224401,1.261,39.17,-12.781173753752098,0.8331632653061263,60
1764815424.0642347,224501,1.2659,39.07,-12.442258409892759,0.7331632653061249,60
1764815424.1667826,224601,1.2659,39.17,-12.442258409892759,0.8331632653061263,60
1764815424.269561,224701,1.2708,39.02,-12.103343066033435,0.6831632653061277,60
1764815424.3716831,224801,1.2708,39.07,-12.103343066033435,0.7331632653061249,60
1764815424.4749875,224901,1.2805,38.93,-11.43242901798537,0.5931632653061243,60
1764815424.578056,225001,1.2805,38.93,-11.43242901798537,0.5931632653061243,60
1764815424.680317,225101,1.2805,39.27,-11.43242901798537,0.9331632653061277,60
1764815424.7829714,225201,1.2805,39.17,-11.43242901798537,0.8331632653061263,60
1764815424.885273,225301,1.2805,39.07,-11.43242901798537,0.7331632653061249,60
1764815424.9879124,225401,1.2805,38.88,-11.43242901798537,0.5431632653061271,60
1764815425.090052,225501,1.2854,38.88,-11.093513674126033,0.5431632653061271,60
1764815425.1922705,225601,1.2854,38.88,-11.093513674126033,0.5431632653061271,60
1764815425.29577,225701,1.2903,39.17,-10.75459833026671,0.8331632653061263,60
1764815425.4004707,225801,1.2854,39.12,-11.093513674126033,0.783163265306122,60
1764815425.5023804,225901,1.2903,38.93,-10.75459833026671,0.5931632653061243,60
1764815425.6043265,226001,1.2903,38.93,-10.75459833026671,0.5931632653061243,60
1764815425.706674,226101,1.2903,38.93,-10.75459833026671,0.5931632653061243,60
1764815425.8087227,226201,1.2903,38.93,-10.75459833026671,0.5931632653061243,60
1764815425.9106216,226301,1.2903,38.83,-10.75459833026671,0.49316326530612287,60
1764815426.0120852,226401,1.2903,39.02,-10.75459833026671,0.6831632653061277,60
1764815426.1143434,226501,1.2952,38.93,-10.415682986407388,0.5931632653061243,60
1764815426.2167227,226601,1.2903,39.17,-10.75459833026671,0.8331632653061263,60
1764815426.318349,226701,1.2903,39.17,-10.75459833026671,0.8331632653061263,60
1764815426.4209719,226801,1.2903,38.98,-10.75459833026671,0.6431632653061214,60
1764815426.523374,226901,1.2903,39.12,-10.75459833026671,0.783163265306122,60
1764815426.6253438,227001,1.2903,39.02,-10.75459833026671,0.6831632653061277,60
1764815426.7276664,227101,1.2903,39.17,-10.75459833026671,0.8331632653061263,60
1764815426.829155,227201,1.2903,39.02,-10.75459833026671,0.6831632653061277,60
1764815426.9317336,227301,1.2903,39.17,-10.75459833026671,0.8331632653061263,60
1764815427.0339131,227401,1.2903,38.98,-10.75459833026671,0.6431632653061214,60
1764815427.1354516,227501,1.2903,38.98,-10.75459833026671,0.6431632653061214,60
1764815427.2381194,227601,1.2854,39.27,-11.093513674126033,0.9331632653061277,60
1764815427.3404148,227701,1.2903,39.02,-10.75459833026671,0.6831632653061277,60
1764815427.4429953,227801,1.2903,39.31,-10.75459833026671,0.9731632653061268,60
1764815427.545127,227901,1.2854,39.22,-11.093513674126033,0.8831632653061234,60
1764815427.6474938,228001,1.2854,38.88,-11.093513674126033,0.5431632653061271,60
1764815427.7499692,228101,1.2854,39.31,-11.093513674126033,0.9731632653061268,60
1764815427.8525586,228201,1.2854,39.12,-11.093513674126033,0.783163265306122,60
1764815427.9556642,228301,1.2854,39.27,-11.093513674126033,0.9331632653061277,60
1764815428.0579784,228401,1.2854,39.31,-11.093513674126033,0.9731632653061268,60
1764815428.1597087,228501,1.2854,39.07,-11.093513674126033,0.7331632653061249,60
1764815428.261827,228601,1.2854,39.22,-11.093513674126033,0.8831632653061234,60
1764815428.3639033,228701,1.2659,38.54,-12.442258409892759,0.20316326530612372,60
1764815428.466589,228801,1.2903,38.93,-10.75459833026671,0.5931632653061243,60
1764815428.5690515,228901,1.2903,39.12,-10.75459833026671,0.783163265306122,60
1764815428.6716068,229001,1.2903,39.46,-10.75459833026671,1.1231632653061254,60
1764815428.7737331,229101,1.2903,39.22,-10.75459833026671,0.8831632653061234,60
1764815428.8760757,229201,1.2903,38.98,-10.75459833026671,0.6431632653061214,60
1764815428.9780676,229301,1.2854,39.27,-11.093513674126033,0.9331632653061277,58
1764815429.0800383,229401,1.2903,39.02,-10.75459833026671,0.6831632653061277,57
1764815429.1830337,229501,1.2952,39.17,-10.415682986407388,0.8331632653061263,56
1764815429.2860513,229601,1.2903,38.98,-10.75459833026671,0.6431632653061214,54
1764815429.3892002,229701,1.2854,39.27,-11.093513674126033,0.9331632653061277,51
1764815429.491723,229801,1.2805,39.27,-11.43242901798537,0.9331632653061277,50
1764815429.5941906,229901,1.2805,39.07,-11.43242901798537,0.7331632653061249,48
1764815429.6965992,230001,1.2805,39.31,-11.43242901798537,0.9731632653061268,47
1764815429.7989783,230101,1.2805,38.88,-11.43242901798537,0.5431632653061271,47
1764815429.9011357,230201,1.2805,39.12,-11.43242901798537,0.783163265306122,47
1764815430.0039446,230301,1.2805,38.98,-11.43242901798537,0.6431632653061214,47
1764815430.1061733,230401,1.2854,38.98,-11.093513674126033,0.6431632653061214,47
1764815430.209606,230501,1.2805,39.12,-11.43242901798537,0.783163265306122,48
1764815430.3118746,230601,1.2805,39.02,-11.43242901798537,0.6831632653061277,48
1764815430.4138887,230701,1.2805,39.17,-11.43242901798537,0.8331632653061263,49
1764815430.5159905,230801,1.2805,38.98,-11.43242901798537,0.6431632653061214,50
1764815430.6181397,230901,1.2805,39.07,-11.43242901798537,0.7331632653061249,51
1764815430.720791,231001,1.2757,39.31,-11.764427722174096,0.9731632653061268,51
1764815430.8231688,231101,1.2757,39.27,-11.764427722174096,0.9331632653061277,51
1764815430.9254467,231201,1.2757,39.17,-11.764427722174096,0.8331632653061263,51
1764815431.0281641,231301,1.2757,39.12,-11.764427722174096,0.783163265306122,51
1764815431.1306534,231401,1.2757,39.12,-11.764427722174096,0.783163265306122,51
1764815431.232749,231501,1.2757,39.07,-11.764427722174096,0.7331632653061249,51
1764815431.3351789,231601,1.2757,38.98,-11.764427722174096,0.6431632653061214,51
1764815431.4379828,231701,1.2757,39.22,-11.764427722174096,0.8831632653061234,51
1764815431.5419164,231801,1.2708,39.17,-12.103343066033435,0.8331632653061263,51
1764815431.644592,231901,1.2708,39.02,-12.103343066033435,0.6831632653061277,51
1764815431.7471251,232001,1.261,39.12,-12.781173753752098,0.783163265306122,51
1764815431.8493931,232101,1.261,39.17,-12.781173753752098,0.8331632653061263,51
1764815431.9517202,232201,1.261,38.83,-12.781173753752098,0.49316326530612287,51
1764815432.0539181,232301,1.261,39.12,-12.781173753752098,0.783163265306122,51
1764815432.1561031,232401,1.2561,39.12,-13.12008909761142,0.783163265306122,51
1764815432.2579007,232501,1.261,39.22,-12.781173753752098,0.8831632653061234,51
1764815432.3600953,232601,1.2561,38.83,-13.12008909761142,0.49316326530612287,51
1764815432.4623363,232701,1.2561,39.27,-13.12008909761142,0.9331632653061277,51
1764815432.5655813,232801,1.2561,38.88,-13.12008909761142,0.5431632653061271,51
1764815432.667833,232901,1.2561,39.07,-13.12008909761142,0.7331632653061249,51
1764815432.7702696,233001,1.261,39.27,-12.781173753752098,0.9331632653061277,51
1764815432.8723836,233101,1.2708,38.88,-12.103343066033435,0.5431632653061271,51
1764815432.9744983,233201,1.2659,38.98,-12.442258409892759,0.6431632653061214,51
1764815433.0764084,233301,1.2561,39.07,-13.12008909761142,0.7331632653061249,51
1764815433.1788669,233401,1.261,38.93,-12.781173753752098,0.5931632653061243,51
1764815433.2809985,233501,1.2659,38.93,-12.442258409892759,0.5931632653061243,51
1764815433.383179,233601,1.2561,39.12,-13.12008909761142,0.783163265306122,51
1764815433.4854913,233701,1.2561,38.88,-13.12008909761142,0.5431632653061271,51
1764815433.5945501,233801,1.2561,39.22,-13.12008909761142,0.8831632653061234,51
1764815433.701057,233901,1.2561,39.07,-13.12008909761142,0.7331632653061249,51
1764815433.8042986,234001,1.261,38.83,-12.781173753752098,0.49316326530612287,51
1764815433.9065824,234101,1.2561,39.36,-13.12008909761142,1.023163265306124,51
1764815434.008795,234201,1.2512,39.17,-13.459004441470743,0.8331632653061263,51
1764815434.1110673,234301,1.2512,39.27,-13.459004441470743,0.9331632653061277,51
1764815434.2139122,234401,1.2561,39.27,-13.12008909761142,0.9331632653061277,51
1764815434.318504,234501,1.2561,39.31,-13.12008909761142,0.9731632653061268,51
1764815434.422244,234601,1.261,39.02,-12.781173753752098,0.6831632653061277,51
1764815434.5241878,234701,1.261,39.07,-12.781173753752098,0.7331632653061249,51
1764815434.6268885,234801,1.2659,38.98,-12.442258409892759,0.6431632653061214,51
1764815434.730124,234901,1.261,39.22,-12.781173753752098,0.8831632653061234,51
1764815434.8324196,235001,1.261,38.98,-12.781173753752098,0.6431632653061214,51
1764815434.9349842,235101,1.2561,39.31,-13.12008909761142,0.9731632653061268,51
1764815435.0379515,235201,1.261,39.07,-12.781173753752098,0.7331632653061249,51
1764815435.1404998,235301,1.261,38.88,-12.781173753752098,0.5431632653061271,51
1764815435.242624,235401,1.261,38.88,-12.781173753752098,0.5431632653061271,51
1764815435.3450963,235501,1.261,39.22,-12.781173753752098,0.8831632653061234,51
1764815435.4474719,235601,1.2659,39.07,-12.442258409892759,0.7331632653061249,50
1764815435.550417,235701,1.261,39.12,-12.781173753752098,0.783163265306122,49
1764815435.6532266,235801,1.261,39.02,-12.781173753752098,0.6831632653061277,48
1764815435.7555847,235901,1.2659,38.93,-12.442258409892759,0.5931632653061243,47
1764815435.8573754,236001,1.261,38.98,-12.781173753752098,0.6431632653061214,46
1764815435.960806,236101,1.2659,38.93,-12.442258409892759,0.5931632653061243,46
1764815436.0631618,236201,1.2659,39.22,-12.442258409892759,0.8831632653061234,46
1764815436.1654794,236301,1.2659,39.27,-12.442258409892759,0.9331632653061277,46
1764815436.2678142,236401,1.261,39.12,-12.781173753752098,0.783163265306122,45
1764815436.3707416,236501,1.2659,39.02,-12.442258409892759,0.6831632653061277,45
1764815436.47341,236601,1.2659,38.88,-12.442258409892759,0.5431632653061271,45
1764815436.575486,236701,1.2708,39.02,-12.103343066033435,0.6831632653061277,44
1764815436.6774828,236801,1.2708,38.98,-12.103343066033435,0.6431632653061214,44
1764815436.7796776,236901,1.2659,39.07,-12.442258409892759,0.7331632653061249,44
1764815436.8827405,237001,1.2708,39.02,-12.103343066033435,0.6831632653061277,44
1764815436.987556,237101,1.2659,38.88,-12.442258409892759,0.5431632653061271,44
1764815437.0897822,237201,1.2659,38.83,-12.442258409892759,0.49316326530612287,44
1764815437.1920602,237301,1.2659,39.27,-12.442258409892759,0.9331632653061277,44
1764815437.2954562,237401,1.2708,39.12,-12.103343066033435,0.783163265306122,44
1764815437.3977838,237501,1.2708,38.88,-12.103343066033435,0.5431632653061271,44
1764815437.4996943,237601,1.2708,39.27,-12.103343066033435,0.9331632653061277,44
1764815437.6021826,237701,1.2757,38.88,-11.764427722174096,0.5431632653061271,44
1764815437.704174,237801,1.2659,39.02,-12.442258409892759,0.6831632653061277,44
1764815437.8061798,237901,1.2659,38.88,-12.442258409892759,0.5431632653061271,44
1764815437.9081042,238001,1.261,39.36,-12.781173753752098,1.023163265306124,44
1764815438.0103424,238101,1.2659,38.98,-12.442258409892759,0.6431632653061214,44
1764815438.1129954,238201,1.2659,38.93,-12.442258409892759,0.5931632653061243,44
1764815438.2151742,238301,1.261,39.07,-12.781173753752098,0.7331632653061249,44
1764815438.3178334,238401,1.261,39.07,-12.781173753752098,0.7331632653061249,44
1764815438.4229786,238501,1.2659,39.02,-12.442258409892759,0.6831632653061277,44
1764815438.5250926,238601,1.2659,39.02,-12.442258409892759,0.6831632653061277,44
1764815438.6274867,238701,1.2708,39.27,-12.103343066033435,0.9331632653061277,44
1764815438.7294233,238801,1.2708,38.88,-12.103343066033435,0.5431632653061271,44
1764815438.83384,238901,1.2659,38.98,-12.442258409892759,0.6431632653061214,44
1764815438.9363248,239001,1.2659,39.02,-12.442258409892759,0.6831632653061277,44
1764815439.0389855,239101,1.2708,39.17,-12.103343066033435,0.8331632653061263,44
1764815439.1414406,239201,1.2659,38.88,-12.442258409892759,0.5431632653061271,44
1764815439.243805,239301,1.2708,39.17,-12.103343066033435,0.8331632653061263,44
1764815439.3470542,239401,1.2659,38.93,-12.442258409892759,0.5931632653061243,44
1764815439.4494677,239501,1.2659,38.83,-12.442258409892759,0.49316326530612287,44
1764815439.5519645,239601,1.2708,38.64,-12.103343066033435,0.30316326530612514,44
1764815439.6545272,239701,1.2708,39.17,-12.103343066033435,0.8331632653061263,44
1764815439.756421,239801,1.2708,39.07,-12.103343066033435,0.7331632653061249,44
1764815439.8586817,239901,1.2708,38.98,-12.103343066033435,0.6431632653061214,44
1764815439.9612002,240001,1.2708,39.02,-12.103343066033435,0.6831632653061277,44
1764815440.0635207,240101,1.2708,39.27,-12.103343066033435,0.9331632653061277,44
1764815440.1660562,240201,1.2708,38.88,-12.103343066033435,0.5431632653061271,44
1764815440.268242,240301,1.2708,39.07,-12.103343066033435,0.7331632653061249,44
1764815440.3702679,240401,1.2708,39.17,-12.103343066033435,0.8331632653061263,44
1764815440.472779,240501,1.2708,38.98,-12.103343066033435,0.6431632653061214,44
1764815440.5757449,240601,1.2708,38.88,-12.103343066033435,0.5431632653061271,44
1764815440.678144,240701,1.2708,39.22,-12.103343066033435,0.8831632653061234,44
1764815440.781021,240801,1.2708,39.07,-12.103343066033435,0.7331632653061249,44
1764815440.8845203,240901,1.2708,39.22,-12.103343066033435,0.8831632653061234,44
1764815440.9868279,241001,1.2659,38.93,-12.442258409892759,0.5931632653061243,44
1764815441.0890992,241101,1.2659,38.93,-12.442258409892759,0.5931632653061243,44
1764815441.1914256,241201,1.2659,38.93,-12.442258409892759,0.5931632653061243,44
1764815441.2939355,241301,1.2708,38.88,-12.103343066033435,0.5431632653061271,44
1764815441.3977494,241401,1.2708,39.12,-12.103343066033435,0.783163265306122,44
1764815441.5005395,241501,1.2708,39.07,-12.103343066033435,0.7331632653061249,44
1764815441.6029184,241601,1.2708,39.02,-12.103343066033435,0.6831632653061277,44
1764815441.7053285,241701,1.2757,38.93,-11.764427722174096,0.5931632653061243,44
1764815441.8075466,241801,1.2757,38.98,-11.764427722174096,0.6431632653061214,44
1764815441.9111085,241901,1.2757,39.27,-11.764427722174096,0.9331632653061277,44
1764815442.0133417,242001,1.2757,38.88,-11.764427722174096,0.5431632653061271,44
1764815442.1160429,242101,1.2757,39.27,-11.764427722174096,0.9331632653061277,44
1764815442.2180207,242201,1.2757,38.93,-11.764427722174096,0.5931632653061243,44
1764815442.3204782,242301,1.2708,39.27,-12.103343066033435,0.9331632653061277,44
1764815442.4239116,242401,1.2708,38.98,-12.103343066033435,0.6431632653061214,44
1764815442.5262685,242501,1.2757,38.93,-11.764427722174096,0.5931632653061243,44
1764815442.6287374,242601,1.2708,38.93,-12.103343066033435,0.5931632653061243,44
1764815442.733375,242701,1.2659,39.22,-12.442258409892759,0.8831632653061234,44
1764815442.8355181,242801,1.2659,39.02,-12.442258409892759,0.6831632653061277,44
1764815442.9376433,242901,1.261,39.12,-12.781173753752098,0.783163265306122,44
1764815443.0398285,243001,1.261,39.07,-12.781173753752098,0.7331632653061249,48
1764815443.1423755,243101,1.2561,39.17,-13.12008909761142,0.8331632653061263,52
1764815443.2451682,243201,1.261,38.88,-12.781173753752098,0.5431632653061271,57
1764815443.3477497,243301,1.261,38.98,-12.781173753752098,0.6431632653061214,61
1764815443.4501157,243401,1.261,39.02,-12.781173753752098,0.6831632653061277,65
1764815443.5523908,243501,1.261,39.07,-12.781173753752098,0.7331632653061249,65
1764815443.6551292,243601,1.261,38.88,-12.781173753752098,0.5431632653061271,65
1764815443.7578733,243701,1.261,39.02,-12.781173753752098,0.6831632653061277,65
1764815443.8605618,243801,1.261,38.88,-12.781173753752098,0.5431632653061271,65
1764815443.9640958,243901,1.2561,38.98,-13.12008909761142,0.6431632653061214,65
