timestamp,ecg_raw,ecg_voltage,temperature,ecg_change_percent,temp_change_celsius,bpm
1764814751.4834096,9701,1.3392,37.65,-3.9249519078939255,0.11948453608247434,70
1764814751.5853622,9801,1.3392,37.6,-3.9249519078939255,0.06948453608247718,70
1764814751.687236,9901,1.3392,37.69,-3.9249519078939255,0.15948453608247348,70
1764814751.7894018,10001,1.3392,37.65,-3.9249519078939255,0.11948453608247434,70
1764814751.8917706,10101,1.3392,37.41,-3.9249519078939255,-0.12051546391752765,70
1764814751.993849,10201,1.3441,37.69,-3.5734228340802066,0.15948453608247348,70
1764814752.0982175,10301,1.3392,37.37,-3.9249519078939255,-0.1605154639175268,70
1764814752.2008188,10401,1.3441,37.32,-3.5734228340802066,-0.21051546391752396,70
1764814752.3029249,10501,1.3441,37.46,-3.5734228340802066,-0.07051546391752339,70
1764814752.4414911,10601,1.3441,37.41,-3.5734228340802066,-0.12051546391752765,70
1764814752.5452812,10701,1.3441,37.6,-3.5734228340802066,0.06948453608247718,70
1764814752.6674013,10801,1.3441,37.51,-3.5734228340802066,-0.020515463917526233,64
1764814752.7693775,10901,1.349,37.41,-3.2218937602665045,-0.12051546391752765,75
1764814752.8717537,11001,1.3441,37.69,-3.5734228340802066,0.15948453608247348,78
1764814752.9734812,11101,1.3441,37.27,-3.5734228340802066,-0.2605154639175211,80
1764814753.0754044,11201,1.349,37.41,-3.2218937602665045,-0.12051546391752765,81
1764814753.1781008,11301,1.3441,37.65,-3.5734228340802066,0.11948453608247434,86
1764814753.2803109,11401,1.3441,37.74,-3.5734228340802066,0.20948453608247775,86
1764814753.382129,11501,1.349,37.51,-3.2218937602665045,-0.020515463917526233,86
1764814753.4839811,11601,1.3441,37.65,-3.5734228340802066,0.11948453608247434,86
1764814753.5871637,11701,1.3441,37.55,-3.5734228340802066,0.019484536082472914,86
1764814753.68917,11801,1.349,37.46,-3.2218937602665045,-0.07051546391752339,86
1764814753.7914217,11901,1.3441,37.74,-3.5734228340802066,0.20948453608247775,86
1764814753.894377,12001,1.3441,37.27,-3.5734228340802066,-0.2605154639175211,86
1764814753.9981225,12101,1.349,37.46,-3.2218937602665045,-0.07051546391752339,86
1764814754.1003606,12201,1.349,37.32,-3.2218937602665045,-0.21051546391752396,86
1764814754.2027562,12301,1.349,37.41,-3.2218937602665045,-0.12051546391752765,86
1764814754.304555,12401,1.349,37.41,-3.2218937602665045,-0.12051546391752765,86
1764814754.40669,12501,1.3441,37.51,-3.5734228340802066,-0.020515463917526233,86
1764814754.508727,12601,1.3441,37.51,-3.5734228340802066,-0.020515463917526233,86
1764814754.6111643,12701,1.3441,37.65,-3.5734228340802066,0.11948453608247434,86
1764814754.713432,12801,1.3441,37.65,-3.5734228340802066,0.11948453608247434,86
1764814754.8156123,12901,1.3441,37.27,-3.5734228340802066,-0.2605154639175211,86
1764814754.91783,13001,1.3441,37.41,-3.5734228340802066,-0.12051546391752765,86
1764814755.02019,13101,1.3392,37.6,-3.9249519078939255,0.06948453608247718,86
1764814755.1228125,13201,1.3392,37.55,-3.9249519078939255,0.019484536082472914,86
1764814755.2248974,13301,1.3392,37.55,-3.9249519078939255,0.019484536082472914,86
1764814755.3271825,13401,1.3441,37.65,-3.5734228340802066,0.11948453608247434,86
1764814755.4294982,13501,1.3441,37.51,-3.5734228340802066,-0.020515463917526233,86
1764814755.531275,13601,1.3441,37.65,-3.5734228340802066,0.11948453608247434,86
1764814755.633802,13701,1.3441,37.69,-3.5734228340802066,0.15948453608247348,86
1764814755.7364044,13801,1.3441,37.65,-3.5734228340802066,0.11948453608247434,86
1764814755.8383713,13901,1.3441,37.65,-3.5734228340802066,0.11948453608247434,86
1764814755.9404109,14001,1.3441,37.32,-3.5734228340802066,-0.21051546391752396,86
1764814756.0430603,14101,1.3441,37.37,-3.5734228340802066,-0.1605154639175268,86
1764814756.1450503,14201,1.3441,37.27,-3.5734228340802066,-0.2605154639175211,86
1764814756.2467291,14301,1.349,37.27,-3.2218937602665045,-0.2605154639175211,86
1764814756.349092,14401,1.3441,37.46,-3.5734228340802066,-0.07051546391752339,86
1764814756.4516315,14501,1.3441,37.65,-3.5734228340802066,0.11948453608247434,77
1764814756.5535798,14601,1.3441,37.46,-3.5734228340802066,-0.07051546391752339,69
1764814756.6562035,14701,1.3245,37.0,-4.97953912933505,-0.5305154639175242,61
1764814756.7591982,14801,1.3392,37.32,-3.9249519078939255,-0.21051546391752396,54
1764814756.8628833,14901,1.3392,37.27,-3.9249519078939255,-0.2605154639175211,46
1764814756.9652956,15001,1.3392,37.51,-3.9249519078939255,-0.020515463917526233,47
1764814757.0674536,15101,1.3343,37.46,-4.276480981707628,-0.07051546391752339,47
1764814757.1695666,15201,1.3343,37.51,-4.276480981707628,-0.020515463917526233,47
1764814757.2722023,15301,1.3343,37.27,-4.276480981707628,-0.2605154639175211,47
1764814757.3753042,15401,1.3294,37.65,-4.628010055521347,0.11948453608247434,48
1764814757.4781651,15501,1.3294,37.74,-4.628010055521347,0.20948453608247775,48
1764814757.5803106,15601,1.3245,37.32,-4.97953912933505,-0.21051546391752396,48
1764814757.6826112,15701,1.3294,37.41,-4.628010055521347,-0.12051546391752765,49
1764814757.784737,15801,1.3245,37.51,-4.97953912933505,-0.020515463917526233,49
1764814757.8867767,15901,1.3245,37.27,-4.97953912933505,-0.2605154639175211,49
1764814757.988664,16001,1.3245,37.69,-4.97953912933505,0.15948453608247348,49
1764814758.090972,16101,1.3245,37.51,-4.97953912933505,-0.020515463917526233,49
1764814758.1931958,16201,1.3245,37.6,-4.97953912933505,0.06948453608247718,49
1764814758.295639,16301,1.3196,37.37,-5.331068203148752,-0.1605154639175268,49
1764814758.3977754,16401,1.3245,37.55,-4.97953912933505,0.019484536082472914,49
1764814758.4995918,16501,1.3196,37.51,-5.331068203148752,-0.020515463917526233,49
1764814758.60162,16601,1.3196,37.74,-5.331068203148752,0.20948453608247775,49
1764814758.7035844,16701,1.3245,37.79,-4.97953912933505,0.2594845360824749,49
1764814758.8061078,16801,1.3196,37.51,-5.331068203148752,-0.020515463917526233,49
1764814758.908655,16901,1.3099,37.55,-6.026952288045282,0.019484536082472914,50
1764814759.0115974,17001,1.3196,37.46,-5.331068203148752,-0.07051546391752339,51
1764814759.1135254,17101,1.3196,37.46,-5.331068203148752,-0.07051546391752339,53
1764814759.2153242,17201,1.3148,37.37,-5.6754232142315795,-0.1605154639175268,54
1764814759.3173532,17301,1.3099,37.55,-6.026952288045282,0.019484536082472914,55
1764814759.4192095,17401,1.3099,37.32,-6.026952288045282,-0.21051546391752396,55
1764814759.5213315,17501,1.3099,37.37,-6.026952288045282,-0.1605154639175268,55
1764814759.6237984,17601,1.3001,37.6,-6.730010435672703,0.06948453608247718,55
1764814759.727047,17701,1.2952,37.27,-7.081539509486421,-0.2605154639175211,55
1764814759.8294067,17801,1.3001,37.74,-6.730010435672703,0.20948453608247775,55
1764814759.931479,17901,1.305,37.46,-6.378481361859,-0.07051546391752339,55
1764814760.0335722,18001,1.3001,37.32,-6.730010435672703,-0.21051546391752396,55
1764814760.1354787,18101,1.3148,37.79,-5.6754232142315795,0.2594845360824749,55
1764814760.2382643,18201,1.3148,37.37,-5.6754232142315795,-0.1605154639175268,55
1764814760.3402615,18301,1.3148,37.27,-5.6754232142315795,-0.2605154639175211,55
1764814760.4426725,18401,1.3148,37.51,-5.6754232142315795,-0.020515463917526233,55
1764814760.544665,18501,1.3148,37.74,-5.6754232142315795,0.20948453608247775,55
1764814760.6466029,18601,1.3148,37.32,-5.6754232142315795,-0.21051546391752396,55
1764814760.74865,18701,1.3245,37.6,-4.97953912933505,0.06948453608247718,55
1764814760.8509805,18801,1.3245,37.6,-4.97953912933505,0.06948453608247718,56
1764814760.9541812,18901,1.3148,37.65,-5.6754232142315795,0.11948453608247434,56
1764814761.056964,19001,1.3148,37.65,-5.6754232142315795,0.11948453608247434,57
1764814761.1608932,19101,1.3196,37.69,-5.331068203148752,0.15948453608247348,57
1764814761.2628686,19201,1.3148,37.65,-5.6754232142315795,0.11948453608247434,58
1764814761.3647676,19301,1.3196,37.65,-5.331068203148752,0.11948453608247434,58
1764814761.4675364,19401,1.3245,37.32,-4.97953912933505,-0.21051546391752396,58
1764814761.569603,19501,1.3245,37.79,-4.97953912933505,0.2594845360824749,58
1764814761.6733983,19601,1.3245,37.79,-4.97953912933505,0.2594845360824749,59
1764814761.7758021,19701,1.3148,37.46,-5.6754232142315795,-0.07051546391752339,60
1764814761.8784606,19801,1.3099,37.32,-6.026952288045282,-0.21051546391752396,61
1764814761.980188,19901,1.3148,37.51,-5.6754232142315795,-0.020515463917526233,62
1764814762.0829558,20001,1.3148,37.65,-5.6754232142315795,0.11948453608247434,63
1764814762.1849108,20101,1.3099,37.65,-6.026952288045282,0.11948453608247434,60
1764814762.2871318,20201,1.3196,37.46,-5.331068203148752,-0.07051546391752339,57
1764814762.3895552,20301,1.3196,37.83,-5.331068203148752,0.29948453608247405,54
1764814762.4927433,20401,1.3099,37.79,-6.026952288045282,0.2594845360824749,51
1764814762.5945354,20501,1.3099,37.65,-6.026952288045282,0.11948453608247434,48
1764814762.6960227,20601,1.3099,37.37,-6.026952288045282,-0.1605154639175268,48
1764814762.7980976,20701,1.3099,37.32,-6.026952288045282,-0.21051546391752396,48
1764814762.8997867,20801,1.3099,37.27,-6.026952288045282,-0.2605154639175211,49
1764814763.0023482,20901,1.3099,37.74,-6.026952288045282,0.20948453608247775,50
1764814763.1045642,21001,1.3099,37.65,-6.026952288045282,0.11948453608247434,51
1764814763.2086282,21101,1.305,37.37,-6.378481361859,-0.1605154639175268,51
1764814763.3110387,21201,1.3001,37.41,-6.730010435672703,-0.12051546391752765,51
1764814763.412802,21301,1.2903,37.74,-7.433068583300124,0.20948453608247775,51
1764814763.5150607,21401,1.305,37.32,-6.378481361859,-0.21051546391752396,50
1764814763.617133,21501,1.2903,37.37,-7.433068583300124,-0.1605154639175268,49
1764814763.719804,21601,1.2805,37.51,-8.136126730927545,-0.020515463917526233,47
1764814763.8246052,21701,1.2805,37.32,-8.136126730927545,-0.21051546391752396,47
1764814763.926369,21801,1.2854,37.51,-7.784597657113827,-0.020515463917526233,47
1764814764.028167,21901,1.2805,37.79,-8.136126730927545,0.2594845360824749,47
1764814764.1302094,22001,1.2854,37.32,-7.784597657113827,-0.21051546391752396,47
1764814764.2324233,22101,1.2805,37.41,-8.136126730927545,-0.12051546391752765,47
1764814764.3345594,22201,1.2805,37.46,-8.136126730927545,-0.07051546391752339,47
1764814764.4370837,22301,1.2805,37.37,-8.136126730927545,-0.1605154639175268,47
1764814764.5388646,22401,1.2854,37.79,-7.784597657113827,0.2594845360824749,47
1764814764.640664,22501,1.2708,37.32,-8.832010815824077,-0.21051546391752396,47
1764814764.7422864,22601,1.2708,37.41,-8.832010815824077,-0.12051546391752765,47
1764814764.8437986,22701,1.2659,37.6,-9.183539889637778,0.06948453608247718,47
1764814764.9453633,22801,1.261,37.6,-9.535068963451497,0.06948453608247718,47
1764814765.0481799,22901,1.261,37.6,-9.535068963451497,0.06948453608247718,47
1764814765.150204,23001,1.261,37.6,-9.535068963451497,0.06948453608247718,47
1764814765.2573416,23101,1.2512,37.65,-10.238127111078903,0.11948453608247434,47
1764814765.3592925,23201,1.2561,37.65,-9.8865980372652,0.11948453608247434,47
1764814765.4608,23301,1.261,37.32,-9.535068963451497,-0.21051546391752396,47
1764814765.5631073,23401,1.261,37.6,-9.535068963451497,0.06948453608247718,47
1764814765.6647387,23501,1.261,37.74,-9.535068963451497,0.20948453608247775,47
1764814765.76821,23601,1.261,37.79,-9.535068963451497,0.2594845360824749,47
1764814765.8711488,23701,1.2561,37.65,-9.8865980372652,0.11948453608247434,47
1764814765.9742298,23801,1.261,37.37,-9.535068963451497,-0.1605154639175268,47
1764814766.0764673,23901,1.261,37.65,-9.535068963451497,0.11948453608247434,47
1764814766.1779783,24001,1.261,37.41,-9.535068963451497,-0.12051546391752765,47
1764814766.2794456,24101,1.261,37.37,-9.535068963451497,-0.1605154639175268,47
1764814766.3814952,24201,1.261,37.6,-9.535068963451497,0.06948453608247718,46
1764814766.483548,24301,1.2659,37.79,-9.183539889637778,0.2594845360824749,44
1764814766.5857177,24401,1.2659,37.74,-9.183539889637778,0.20948453608247775,44
1764814766.688246,24501,1.2659,37.32,-9.183539889637778,-0.21051546391752396,45
1764814766.7912238,24601,1.2659,37.41,-9.183539889637778,-0.12051546391752765,45
1764814766.8930967,24701,1.2659,37.79,-9.183539889637778,0.2594845360824749,47
1764814766.99497,24801,1.2659,37.51,-9.183539889637778,-0.020515463917526233,49
1764814767.0970094,24901,1.2708,37.51,-8.832010815824077,-0.020515463917526233,51
1764814767.200021,25001,1.2659,37.74,-9.183539889637778,0.20948453608247775,54
1764814767.3021333,25101,1.2659,37.37,-9.183539889637778,-0.1605154639175268,56
1764814767.4046607,25201,1.2708,37.6,-8.832010815824077,0.06948453608247718,56
1764814767.5066862,25301,1.2512,37.09,-10.238127111078903,-0.44051546391752083,56
1764814767.608671,25401,1.2708,37.46,-8.832010815824077,-0.07051546391752339,56
1764814767.7116883,25501,1.2708,37.51,-8.832010815824077,-0.020515463917526233,56
1764814767.8141265,25601,1.2708,37.74,-8.832010815824077,0.20948453608247775,56
1764814767.916217,25701,1.2708,37.65,-8.832010815824077,0.11948453608247434,56
1764814768.0188406,25801,1.2708,37.69,-8.832010815824077,0.15948453608247348,56
1764814768.121568,25901,1.2757,37.74,-8.480481742010356,0.20948453608247775,56
1764814768.223281,26001,1.2757,37.6,-8.480481742010356,0.06948453608247718,58
1764814768.3247168,26101,1.2757,37.79,-8.480481742010356,0.2594845360824749,60
1764814768.4276166,26201,1.2757,37.37,-8.480481742010356,-0.1605154639175268,62
1764814768.5295439,26301,1.2805,37.41,-8.136126730927545,-0.12051546391752765,64
1764814768.6314356,26401,1.2708,37.79,-8.832010815824077,0.2594845360824749,66
1764814768.7336943,26501,1.2757,37.51,-8.480481742010356,-0.020515463917526233,66
1764814768.836025,26601,1.2757,37.46,-8.480481742010356,-0.07051546391752339,64
1764814768.9382143,26701,1.2708,37.46,-8.832010815824077,-0.07051546391752339,61
1764814769.040651,26801,1.2708,37.65,-8.832010815824077,0.11948453608247434,59
1764814769.1431053,26901,1.2708,37.41,-8.832010815824077,-0.12051546391752765,59
1764814769.2455971,27001,1.2757,37.79,-8.480481742010356,0.2594845360824749,59
1764814769.3472888,27101,1.2708,37.65,-8.832010815824077,0.11948453608247434,61
1764814769.449675,27201,1.2757,37.6,-8.480481742010356,0.06948453608247718,64
1764814769.551684,27301,1.2757,37.41,-8.480481742010356,-0.12051546391752765,66
1764814769.6537762,27401,1.2708,37.79,-8.832010815824077,0.2594845360824749,66
1764814769.7553735,27501,1.2708,37.46,-8.832010815824077,-0.07051546391752339,66
1764814769.8575578,27601,1.2659,37.79,-9.183539889637778,0.2594845360824749,66
1764814769.95977,27701,1.2659,37.74,-9.183539889637778,0.20948453608247775,66
1764814770.0615828,27801,1.2708,37.55,-8.832010815824077,0.019484536082472914,66
1764814770.1638672,27901,1.2708,37.79,-8.832010815824077,0.2594845360824749,66
1764814770.267545,28001,1.2708,37.69,-8.832010815824077,0.15948453608247348,66
1764814770.3699412,28101,1.2757,37.51,-8.480481742010356,-0.020515463917526233,66
1764814770.4717052,28201,1.2757,37.79,-8.480481742010356,0.2594845360824749,66
1764814770.573732,28301,1.2757,37.55,-8.480481742010356,0.019484536082472914,66
1764814770.6758714,28401,1.2757,37.6,-8.480481742010356,0.06948453608247718,66
1764814770.777738,28501,1.2805,37.83,-8.136126730927545,0.29948453608247405,66
1764814770.880108,28601,1.2757,37.46,-8.480481742010356,-0.07051546391752339,65
1764814770.9839234,28701,1.2805,37.32,-8.136126730927545,-0.21051546391752396,65
1764814771.087296,28801,1.2805,37.37,-8.136126730927545,-0.1605154639175268,64
1764814771.1893234,28901,1.2805,37.74,-8.136126730927545,0.20948453608247775,63
1764814771.291568,29001,1.2805,37.69,-8.136126730927545,0.15948453608247348,63
1764814771.3937187,29101,1.2805,37.83,-8.136126730927545,0.29948453608247405,63
1764814771.4961894,29201,1.2805,37.51,-8.136126730927545,-0.020515463917526233,63
1764814771.598345,29301,1.2805,37.41,-8.136126730927545,-0.12051546391752765,63
1764814771.7007158,29401,1.2854,37.74,-7.784597657113827,0.20948453608247775,63
1764814771.8029337,29501,1.2854,37.51,-7.784597657113827,-0.020515463917526233,63
1764814771.904757,29601,1.2854,37.41,-7.784597657113827,-0.12051546391752765,63
1764814772.0069947,29701,1.2903,37.51,-7.433068583300124,-0.020515463917526233,63
1764814772.108754,29801,1.2854,37.37,-7.784597657113827,-0.1605154639175268,63
1764814772.2110295,29901,1.2854,37.65,-7.784597657113827,0.11948453608247434,63
1764814772.313038,30001,1.2805,37.6,-8.136126730927545,0.06948453608247718,63
1764814772.415974,30101,1.2854,37.74,-7.784597657113827,0.20948453608247775,63
1764814772.5178547,30201,1.2903,37.46,-7.433068583300124,-0.07051546391752339,63
1764814772.6198606,30301,1.2854,37.37,-7.784597657113827,-0.1605154639175268,63
1764814772.7218556,30401,1.2854,37.79,-7.784597657113827,0.2594845360824749,63
1764814772.8254485,30501,1.2854,37.6,-7.784597657113827,0.06948453608247718,63
1764814772.9280124,30601,1.2854,37.6,-7.784597657113827,0.06948453608247718,63
1764814773.0300813,30701,1.2854,37.74,-7.784597657113827,0.20948453608247775,63
1764814773.1327379,30801,1.2903,37.65,-7.433068583300124,0.11948453608247434,63
1764814773.2357364,30901,1.2854,37.79,-7.784597657113827,0.2594845360824749,63
1764814773.337543,31001,1.2854,37.37,-7.784597657113827,-0.1605154639175268,63
1764814773.4390078,31101,1.2903,37.65,-7.433068583300124,0.11948453608247434,63
1764814773.5413113,31201,1.2854,37.37,-7.784597657113827,-0.1605154639175268,63
1764814773.6502585,31301,1.2854,37.37,-7.784597657113827,-0.1605154639175268,63
1764814773.7544274,31401,1.2854,37.79,-7.784597657113827,0.2594845360824749,63
1764814773.85648,31501,1.2854,37.74,-7.784597657113827,0.20948453608247775,63
1764814773.958399,31601,1.2854,37.46,-7.784597657113827,-0.07051546391752339,63
1764814774.0601826,31701,1.2854,37.41,-7.784597657113827,-0.12051546391752765,63
1764814774.1632717,31801,1.2903,37.51,-7.433068583300124,-0.020515463917526233,63
1764814774.2661552,31901,1.2854,37.88,-7.784597657113827,0.3494845360824783,63
1764814774.368975,32001,1.2854,37.46,-7.784597657113827,-0.07051546391752339,63
1764814774.471399,32101,1.2805,37.65,-8.136126730927545,0.11948453608247434,63
1764814774.5734584,32201,1.2805,37.41,-8.136126730927545,-0.12051546391752765,63
1764814774.6761441,32301,1.2805,37.65,-8.136126730927545,0.11948453608247434,59
1764814774.7783737,32401,1.2854,37.41,-7.784597657113827,-0.12051546391752765,55
1764814774.8807278,32501,1.2805,37.37,-8.136126730927545,-0.1605154639175268,52
1764814774.9831712,32601,1.2854,37.65,-7.784597657113827,0.11948453608247434,49
1764814775.0856292,32701,1.2854,37.46,-7.784597657113827,-0.07051546391752339,46
1764814775.1876667,32801,1.2805,37.41,-8.136126730927545,-0.12051546391752765,47
1764814775.2895813,32901,1.2805,37.46,-8.136126730927545,-0.07051546391752339,48
1764814775.3915894,33001,1.2805,37.46,-8.136126730927545,-0.07051546391752339,48
1764814775.4940493,33101,1.2805,37.74,-8.136126730927545,0.20948453608247775,47
1764814775.595861,33201,1.2854,37.83,-7.784597657113827,0.29948453608247405,54
1764814775.6975873,33301,1.2805,37.79,-8.136126730927545,0.2594845360824749,60
1764814775.7996197,33401,1.2805,37.55,-8.136126730927545,0.019484536082472914,67
1764814775.9024005,33501,1.2805,37.41,-8.136126730927545,-0.12051546391752765,73
1764814776.00479,33601,1.2805,37.41,-8.136126730927545,-0.12051546391752765,80
1764814776.106811,33701,1.2805,37.74,-8.136126730927545,0.20948453608247775,80
1764814776.2093859,33801,1.2805,37.74,-8.136126730927545,0.20948453608247775,80
1764814776.311269,33901,1.2805,37.46,-8.136126730927545,-0.07051546391752339,80
1764814776.414704,34001,1.2757,37.6,-8.480481742010356,0.06948453608247718,80
1764814776.516876,34101,1.2805,37.37,-8.136126730927545,-0.1605154639175268,80
1764814776.618902,34201,1.2805,37.65,-8.136126730927545,0.11948453608247434,80
1764814776.7212238,34301,1.2805,37.55,-8.136126730927545,0.019484536082472914,80
1764814776.8232656,34401,1.2805,37.83,-8.136126730927545,0.29948453608247405,80
1764814776.9252467,34501,1.2805,37.46,-8.136126730927545,-0.07051546391752339,80
1764814777.026983,34601,1.2805,37.6,-8.136126730927545,0.06948453608247718,80
1764814777.130513,34701,1.2805,37.83,-8.136126730927545,0.29948453608247405,80
1764814777.2326376,34801,1.2805,37.6,-8.136126730927545,0.06948453608247718,80
1764814777.33509,34901,1.2805,37.69,-8.136126730927545,0.15948453608247348,80
1764814777.437205,35001,1.2854,37.74,-7.784597657113827,0.20948453608247775,80
1764814777.5391405,35101,1.2757,37.65,-8.480481742010356,0.11948453608247434,75
1764814777.640818,35201,1.2757,37.65,-8.480481742010356,0.11948453608247434,70
1764814777.742849,35301,1.2805,37.6,-8.136126730927545,0.06948453608247718,65
1764814777.8458462,35401,1.2757,37.79,-8.480481742010356,0.2594845360824749,61
1764814777.9478369,35501,1.2805,37.51,-8.136126730927545,-0.020515463917526233,56
1764814778.0502822,35601,1.2805,37.46,-8.136126730927545,-0.07051546391752339,56
1764814778.1520867,35701,1.2805,37.46,-8.136126730927545,-0.07051546391752339,56
1764814778.2538831,35801,1.2757,37.74,-8.480481742010356,0.20948453608247775,56
1764814778.3564196,35901,1.2805,37.6,-8.136126730927545,0.06948453608247718,56
1764814778.4585598,36001,1.2805,37.55,-8.136126730927545,0.019484536082472914,56
1764814778.5602028,36101,1.2757,37.46,-8.480481742010356,-0.07051546391752339,56
1764814778.662606,36201,1.2757,37.65,-8.480481742010356,0.11948453608247434,56
1764814778.765276,36301,1.2708,37.69,-8.832010815824077,0.15948453608247348,56
1764814778.8674304,36401,1.2757,37.55,-8.480481742010356,0.019484536082472914,56
1764814778.9704642,36501,1.2708,37.69,-8.832010815824077,0.15948453608247348,56
1764814779.07275,36601,1.2708,37.88,-8.832010815824077,0.3494845360824783,56
1764814779.1754313,36701,1.2708,37.51,-8.832010815824077,-0.020515463917526233,56
1764814779.2778456,36801,1.2708,37.65,-8.832010815824077,0.11948453608247434,56
1764814779.379852,36901,1.2708,37.51,-8.832010815824077,-0.020515463917526233,56
1764814779.482343,37001,1.2708,37.55,-8.832010815824077,0.019484536082472914,56
1764814779.5842075,37101,1.261,37.79,-9.535068963451497,0.2594845360824749,56
1764814779.6861618,37201,1.261,37.74,-9.535068963451497,0.20948453608247775,56
1764814779.788896,37301,1.261,37.55,-9.535068963451497,0.019484536082472914,56
1764814779.8920596,37401,1.261,37.97,-9.535068963451497,0.4394845360824746,56
1764814779.9946578,37501,1.2561,37.51,-9.8865980372652,-0.020515463917526233,56
1764814780.096846,37601,1.261,37.55,-9.535068963451497,0.019484536082472914,56
1764814780.1984246,37701,1.2561,37.69,-9.8865980372652,0.15948453608247348,56
1764814780.300277,37801,1.2512,37.83,-10.238127111078903,0.29948453608247405,56
1764814780.4024374,37901,1.2561,37.6,-9.8865980372652,0.06948453608247718,56
1764814780.5043085,38001,1.2512,37.74,-10.238127111078903,0.20948453608247775,56
1764814780.6066616,38101,1.2512,37.79,-10.238127111078903,0.2594845360824749,56
1764814780.7091024,38201,1.261,37.69,-9.535068963451497,0.15948453608247348,56
1764814780.8131459,38301,1.2512,37.69,-10.238127111078903,0.15948453608247348,56
1764814780.9149923,38401,1.2512,37.93,-10.238127111078903,0.39948453608247547,56
1764814781.0166404,38501,1.2512,37.51,-10.238127111078903,-0.020515463917526233,56
1764814781.1183877,38601,1.2561,37.74,-9.8865980372652,0.20948453608247775,56
1764814781.2202227,38701,1.2561,37.6,-9.8865980372652,0.06948453608247718,56
1764814781.3223574,38801,1.261,37.88,-9.535068963451497,0.3494845360824783,56
1764814781.4248054,38901,1.261,37.79,-9.535068963451497,0.2594845360824749,56
1764814781.5272374,39001,1.261,37.55,-9.535068963451497,0.019484536082472914,56
1764814781.6294265,39101,1.2659,37.93,-9.183539889637778,0.39948453608247547,56
1764814781.7315757,39201,1.2659,37.69,-9.183539889637778,0.15948453608247348,56
1764814781.8341267,39301,1.2659,37.74,-9.183539889637778,0.20948453608247775,56
1764814781.9366376,39401,1.2659,37.83,-9.183539889637778,0.29948453608247405,56
1764814782.0386996,39501,1.261,37.83,-9.535068963451497,0.29948453608247405,56
1764814782.1410165,39601,1.2659,37.88,-9.183539889637778,0.3494845360824783,57
1764814782.243874,39701,1.2659,37.74,-9.183539889637778,0.20948453608247775,58
1764814782.3476343,39801,1.2659,37.83,-9.183539889637778,0.29948453608247405,60
1764814782.4493172,39901,1.2659,37.6,-9.183539889637778,0.06948453608247718,61
1764814782.551538,40001,1.2659,37.97,-9.183539889637778,0.4394845360824746,62
1764814782.654147,40101,1.2659,37.69,-9.183539889637778,0.15948453608247348,62
1764814782.756674,40201,1.261,37.79,-9.535068963451497,0.2594845360824749,61
1764814782.8586788,40301,1.261,37.6,-9.535068963451497,0.06948453608247718,60
1764814782.9605875,40401,1.261,37.97,-9.535068963451497,0.4394845360824746,59
1764814783.0630615,40501,1.261,38.02,-9.535068963451497,0.4894845360824789,58
1764814783.1672733,40601,1.261,37.69,-9.535068963451497,0.15948453608247348,58
1764814783.269195,40701,1.261,37.6,-9.535068963451497,0.06948453608247718,59
1764814783.3713331,40801,1.2561,37.93,-9.8865980372652,0.39948453608247547,60
1764814783.4746945,40901,1.261,37.83,-9.535068963451497,0.29948453608247405,61
1764814783.577659,41001,1.2561,37.65,-9.8865980372652,0.11948453608247434,60
1764814783.6800158,41101,1.2561,37.83,-9.8865980372652,0.29948453608247405,60
1764814783.7822168,41201,1.2512,37.88,-10.238127111078903,0.3494845360824783,60
1764814783.883754,41301,1.2561,37.97,-9.8865980372652,0.4394845360824746,59
1764814783.9859078,41401,1.2561,37.97,-9.8865980372652,0.4394845360824746,58
1764814784.087886,41501,1.2561,37.69,-9.8865980372652,0.15948453608247348,58
1764814784.1900353,41601,1.261,37.88,-9.535068963451497,0.3494845360824783,58
1764814784.293326,41701,1.261,38.02,-9.535068963451497,0.4894845360824789,58
1764814784.3961837,41801,1.2659,37.79,-9.183539889637778,0.2594845360824749,59
1764814784.4985983,41901,1.2659,37.79,-9.183539889637778,0.2594845360824749,59
1764814784.6003332,42001,1.2659,38.02,-9.183539889637778,0.4894845360824789,59
1764814784.7025235,42101,1.2659,37.93,-9.183539889637778,0.39948453608247547,60
1764814784.8043559,42201,1.2708,37.93,-8.832010815824077,0.39948453608247547,60
1764814784.9058945,42301,1.2659,37.74,-9.183539889637778,0.20948453608247775,58
1764814785.0086818,42401,1.2659,38.12,-9.183539889637778,0.5894845360824732,57
1764814785.1115923,42501,1.2659,37.79,-9.183539889637778,0.2594845360824749,54
1764814785.213623,42601,1.2708,37.79,-8.832010815824077,0.2594845360824749,51
1764814785.4167914,343901,1.3001,37.79,-6.730010435672703,0.2594845360824749,48
1764814785.519037,344001,1.3001,37.69,-6.730010435672703,0.15948453608247348,46
1764814785.622213,344101,1.3001,37.65,-6.730010435672703,0.11948453608247434,44
1764814785.7249026,344201,1.3001,37.97,-6.730010435672703,0.4394845360824746,44
1764814785.827036,344301,1.3001,37.55,-6.730010435672703,0.019484536082472914,52
1764814785.9300492,344401,1.3001,37.93,-6.730010435672703,0.39948453608247547,60
1764814786.0322149,344501,1.3001,37.69,-6.730010435672703,0.15948453608247348,60
1764814786.1337142,344601,1.3001,38.02,-6.730010435672703,0.4894845360824789,60
1764814786.2353263,344701,1.3001,37.79,-6.730010435672703,0.2594845360824749,60
1764814786.3381388,344801,1.3001,37.93,-6.730010435672703,0.39948453608247547,60
1764814786.440123,344901,1.305,37.69,-6.378481361859,0.15948453608247348,60
1764814786.5419738,345001,1.3001,37.69,-6.730010435672703,0.15948453608247348,60
1764814786.6439111,345101,1.3001,37.65,-6.730010435672703,0.11948453608247434,60
1764814786.7463958,345201,1.2952,37.69,-7.081539509486421,0.15948453608247348,60
1764814786.8482308,345301,1.2952,37.6,-7.081539509486421,0.06948453608247718,60
1764814786.9502692,345401,1.3001,37.97,-6.730010435672703,0.4394845360824746,60
1764814787.0523434,345501,1.3001,37.6,-6.730010435672703,0.06948453608247718,60
1764814787.1549091,345601,1.2952,37.83,-7.081539509486421,0.29948453608247405,60
1764814787.2580917,345701,1.2952,37.97,-7.081539509486421,0.4394845360824746,60
1764814787.3608978,345801,1.2952,37.55,-7.081539509486421,0.019484536082472914,60
1764814787.4627962,345901,1.2952,37.83,-7.081539509486421,0.29948453608247405,60
1764814787.5653248,346001,1.2952,37.6,-7.081539509486421,0.06948453608247718,60
1764814787.6670907,346101,1.2952,37.6,-7.081539509486421,0.06948453608247718,60
1764814787.769346,346201,1.2952,38.02,-7.081539509486421,0.4894845360824789,60
1764814787.8718293,346301,1.2952,37.93,-7.081539509486421,0.39948453608247547,60
1764814787.9752872,346401,1.2952,37.74,-7.081539509486421,0.20948453608247775,60
1764814788.077201,346501,1.2903,37.88,-7.433068583300124,0.3494845360824783,60
1764814788.1796148,346601,1.2952,37.74,-7.081539509486421,0.20948453608247775,60
1764814788.2815294,346701,1.2903,37.88,-7.433068583300124,0.3494845360824783,60
1764814788.3836758,346801,1.2952,37.93,-7.081539509486421,0.39948453608247547,60
1764814788.4862394,346901,1.2903,37.83,-7.433068583300124,0.29948453608247405,60
1764814788.5881002,347001,1.2903,37.74,-7.433068583300124,0.20948453608247775,60
1764814788.6900117,347101,1.2952,37.97,-7.081539509486421,0.4394845360824746,60
1764814788.793438,347201,1.2952,37.69,-7.081539509486421,0.15948453608247348,60
1764814788.895334,347301,1.2952,38.02,-7.081539509486421,0.4894845360824789,60
1764814788.9970417,347401,1.2952,37.93,-7.081539509486421,0.39948453608247547,60
1764814789.0988753,347501,1.2952,37.69,-7.081539509486421,0.15948453608247348,60
1764814789.2008178,347601,1.2952,37.69,-7.081539509486421,0.15948453608247348,60
1764814789.3028321,347701,1.2952,37.97,-7.081539509486421,0.4394845360824746,60
1764814789.4047606,347801,1.2952,38.02,-7.081539509486421,0.4894845360824789,60
1764814789.5068848,347901,1.2952,37.97,-7.081539509486421,0.4394845360824746,60
1764814789.6088662,348001,1.2952,37.69,-7.081539509486421,0.15948453608247348,60
1764814789.7107737,348101,1.2854,37.83,-7.784597657113827,0.29948453608247405,60
1764814789.8128269,348201,1.2903,38.02,-7.433068583300124,0.4894845360824789,60
1764814789.915024,348301,1.2952,37.97,-7.081539509486421,0.4394845360824746,60
1764814790.0168793,348401,1.2952,37.79,-7.081539509486421,0.2594845360824749,60
1764814790.1189148,348501,1.2903,37.79,-7.433068583300124,0.2594845360824749,60
1764814790.2211435,348601,1.2952,37.65,-7.081539509486421,0.11948453608247434,60
1764814790.3227854,348701,1.2903,37.79,-7.433068583300124,0.2594845360824749,60
1764814790.425025,348801,1.2903,37.83,-7.433068583300124,0.29948453608247405,60
1764814790.5276535,348901,1.2952,37.6,-7.081539509486421,0.06948453608247718,60
1764814790.6293359,349001,1.2903,37.88,-7.433068583300124,0.3494845360824783,60
1764814790.7308323,349101,1.2952,37.74,-7.081539509486421,0.20948453608247775,60
1764814790.8322203,349201,1.2952,37.69,-7.081539509486421,0.15948453608247348,60
1764814790.9344695,349301,1.2952,38.02,-7.081539509486421,0.4894845360824789,60
1764814791.0363238,349401,1.2903,37.6,-7.433068583300124,0.06948453608247718,60
1764814791.1379247,349501,1.2952,37.93,-7.081539509486421,0.39948453608247547,60
1764814791.2404592,349601,1.2952,37.69,-7.081539509486421,0.15948453608247348,60
1764814791.3419597,349701,1.2952,37.97,-7.081539509486421,0.4394845360824746,60
1764814791.44376,349801,1.2952,37.97,-7.081539509486421,0.4394845360824746,60
1764814791.545755,349901,1.2952,37.65,-7.081539509486421,0.11948453608247434,60
1764814791.647279,350001,1.2952,37.93,-7.081539509486421,0.39948453608247547,60
1764814791.7501721,350101,1.2952,37.74,-7.081539509486421,0.20948453608247775,63
1764814791.8525586,350201,1.2952,38.02,-7.081539509486421,0.4894845360824789,65
1764814791.9545994,350301,1.2952,37.65,-7.081539509486421,0.11948453608247434,67
1764814792.0568771,350401,1.2952,37.74,-7.081539509486421,0.20948453608247775,61
1764814792.1585677,350501,1.2952,37.93,-7.081539509486421,0.39948453608247547,55
1764814792.260739,350601,1.2952,37.74,-7.081539509486421,0.20948453608247775,55
1764814792.362369,350701,1.2952,37.79,-7.081539509486421,0.2594845360824749,55
1764814792.4641538,350801,1.2952,37.69,-7.081539509486421,0.15948453608247348,55
1764814792.56585,350901,1.2952,37.69,-7.081539509486421,0.15948453608247348,55
1764814792.6677568,351001,1.2952,37.65,-7.081539509486421,0.11948453608247434,55
1764814792.7697208,351101,1.2903,37.83,-7.433068583300124,0.29948453608247405,55
1764814792.872079,351201,1.2952,37.88,-7.081539509486421,0.3494845360824783,56
1764814792.9746928,351301,1.2903,37.97,-7.433068583300124,0.4394845360824746,56
1764814793.0764816,351401,1.2952,37.93,-7.081539509486421,0.39948453608247547,56
1764814793.178123,351501,1.2952,38.02,-7.081539509486421,0.4894845360824789,56
1764814793.2803085,351601,1.2952,37.69,-7.081539509486421,0.15948453608247348,57
1764814793.3822455,351701,1.2903,37.69,-7.433068583300124,0.15948453608247348,57
1764814793.4847715,351801,1.2952,37.97,-7.081539509486421,0.4394845360824746,57
1764814793.5864513,351901,1.2952,37.6,-7.081539509486421,0.06948453608247718,57
1764814793.6889243,352001,1.2952,37.69,-7.081539509486421,0.15948453608247348,57
1764814793.7906797,352101,1.2952,37.65,-7.081539509486421,0.11948453608247434,57
1764814793.892269,352201,1.2903,37.69,-7.433068583300124,0.15948453608247348,57
1764814793.9941874,352301,1.2903,38.07,-7.433068583300124,0.539484536082476,57
1764814794.0970635,352401,1.2903,37.97,-7.433068583300124,0.4394845360824746,57
1764814794.1989634,352501,1.2952,37.93,-7.081539509486421,0.39948453608247547,57
1764814794.3006277,352601,1.2903,37.93,-7.433068583300124,0.39948453608247547,57
1764814794.402913,352701,1.2952,37.74,-7.081539509486421,0.20948453608247775,57
1764814794.50543,352801,1.2952,37.79,-7.081539509486421,0.2594845360824749,57
1764814794.6075659,352901,1.2952,37.93,-7.081539509486421,0.39948453608247547,57
1764814794.708993,353001,1.2952,37.93,-7.081539509486421,0.39948453608247547,57
1764814794.8104246,353101,1.2952,37.65,-7.081539509486421,0.11948453608247434,57
1764814794.9122546,353201,1.2952,37.74,-7.081539509486421,0.20948453608247775,57
1764814795.0146432,353301,1.2952,37.79,-7.081539509486421,0.2594845360824749,57
1764814795.116722,353401,1.2952,37.93,-7.081539509486421,0.39948453608247547,57
1764814795.2186058,353501,1.2952,37.83,-7.081539509486421,0.29948453608247405,57
1764814795.322619,353601,1.2952,37.79,-7.081539509486421,0.2594845360824749,57
1764814795.4242537,353701,1.2952,37.79,-7.081539509486421,0.2594845360824749,57
1764814795.5267944,353801,1.2952,37.97,-7.081539509486421,0.4394845360824746,57
1764814795.6291158,353901,1.2952,37.74,-7.081539509486421,0.20948453608247775,57
1764814795.731039,354001,1.2952,38.07,-7.081539509486421,0.539484536082476,57
1764814795.8339388,354101,1.2952,37.97,-7.081539509486421,0.4394845360824746,57
1764814795.9364383,354201,1.2903,37.6,-7.433068583300124,0.06948453608247718,57
1764814796.0385187,354301,1.2903,38.02,-7.433068583300124,0.4894845360824789,57
1764814796.1402814,354401,1.2952,37.65,-7.081539509486421,0.11948453608247434,57
1764814796.242798,354501,1.2903,37.74,-7.433068583300124,0.20948453608247775,57
1764814796.344714,354601,1.2952,37.65,-7.081539509486421,0.11948453608247434,57
1764814796.446924,354701,1.2903,38.02,-7.433068583300124,0.4894845360824789,57
1764814796.5486646,354801,1.2952,37.79,-7.081539509486421,0.2594845360824749,57
1764814796.650765,354901,1.2903,37.97,-7.433068583300124,0.4394845360824746,57
1764814796.7533462,355001,1.2952,38.02,-7.081539509486421,0.4894845360824789,57
1764814796.8552008,355101,1.2903,37.93,-7.433068583300124,0.39948453608247547,57
1764814796.957104,355201,1.2952,37.69,-7.081539509486421,0.15948453608247348,57
1764814797.0587738,355301,1.2952,37.74,-7.081539509486421,0.20948453608247775,57
1764814797.196437,355401,1.2952,37.65,-7.081539509486421,0.11948453608247434,60
1764814797.2985628,355501,1.2903,37.88,-7.433068583300124,0.3494845360824783,63
1764814797.401716,355601,1.2903,37.79,-7.433068583300124,0.2594845360824749,65
1764814797.5043979,355701,1.2952,37.6,-7.081539509486421,0.06948453608247718,68
1764814797.606186,355801,1.2903,37.69,-7.433068583300124,0.15948453608247348,71
1764814797.7081304,355901,1.2952,37.79,-7.081539509486421,0.2594845360824749,72
1764814797.8106847,356001,1.2903,37.6,-7.433068583300124,0.06948453608247718,72
1764814797.9129727,356101,1.2903,37.74,-7.433068583300124,0.20948453608247775,72
1764814798.014507,356201,1.2952,38.07,-7.081539509486421,0.539484536082476,73
1764814798.1162753,356301,1.2952,37.97,-7.081539509486421,0.4394845360824746,72
1764814798.2183022,356401,1.2952,37.93,-7.081539509486421,0.39948453608247547,72
1764814798.3206272,356501,1.2952,37.79,-7.081539509486421,0.2594845360824749,72
1764814798.4223733,356601,1.2952,38.02,-7.081539509486421,0.4894845360824789,72
1764814798.5244083,356701,1.2903,37.83,-7.433068583300124,0.29948453608247405,72
1764814798.6265376,356801,1.2952,37.97,-7.081539509486421,0.4394845360824746,73
1764814798.7287552,356901,1.2952,38.02,-7.081539509486421,0.4894845360824789,73
1764814798.831402,357001,1.2903,37.88,-7.433068583300124,0.3494845360824783,73
1764814798.9340868,357101,1.2952,37.93,-7.081539509486421,0.39948453608247547,73
1764814799.0377488,357201,1.2903,37.74,-7.433068583300124,0.20948453608247775,74
1764814799.139789,357301,1.2952,37.88,-7.081539509486421,0.3494845360824783,75
1764814799.241776,357401,1.2903,37.69,-7.433068583300124,0.15948453608247348,75
1764814799.3444958,357501,1.2903,37.65,-7.433068583300124,0.11948453608247434,76
1764814799.4466305,357601,1.2903,37.93,-7.433068583300124,0.39948453608247547,76
1764814799.548751,357701,1.2903,37.79,-7.433068583300124,0.2594845360824749,76
1764814799.6512158,357801,1.2854,37.97,-7.784597657113827,0.4394845360824746,75
1764814799.7548501,357901,1.2903,37.83,-7.433068583300124,0.29948453608247405,75
1764814799.8571098,358001,1.2952,37.65,-7.081539509486421,0.11948453608247434,75
1764814799.958595,358101,1.2903,37.97,-7.433068583300124,0.4394845360824746,76
1764814800.061866,358201,1.2854,37.6,-7.784597657113827,0.06948453608247718,76
1764814800.1635866,358301,1.2903,37.65,-7.433068583300124,0.11948453608247434,76
1764814800.2661734,358401,1.2903,37.65,-7.433068583300124,0.11948453608247434,76
1764814800.3684316,358501,1.2903,37.69,-7.433068583300124,0.15948453608247348,76
1764814800.4706125,358601,1.2903,37.65,-7.433068583300124,0.11948453608247434,75
1764814800.5726078,358701,1.2903,37.69,-7.433068583300124,0.15948453608247348,75
1764814800.674123,358801,1.2903,37.74,-7.433068583300124,0.20948453608247775,75
1764814800.7758982,358901,1.2903,37.69,-7.433068583300124,0.15948453608247348,75
1764814800.878575,359001,1.2854,38.02,-7.784597657113827,0.4894845360824789,75
1764814800.981579,359101,1.2903,37.69,-7.433068583300124,0.15948453608247348,75
1764814801.0843427,359201,1.2854,37.65,-7.784597657113827,0.11948453608247434,76
1764814801.1862676,359301,1.2854,37.93,-7.784597657113827,0.39948453608247547,76
1764814801.2879746,359401,1.2854,37.74,-7.784597657113827,0.20948453608247775,77
1764814801.3898582,359501,1.2854,37.69,-7.784597657113827,0.15948453608247348,77
1764814801.4918387,359601,1.2854,37.93,-7.784597657113827,0.39948453608247547,78
1764814801.5938761,359701,1.2854,37.69,-7.784597657113827,0.15948453608247348,78
1764814801.6969209,359801,1.2854,37.6,-7.784597657113827,0.06948453608247718,79
1764814801.7994926,359901,1.2903,37.79,-7.433068583300124,0.2594845360824749,79
1764814801.9013972,360001,1.2903,37.65,-7.433068583300124,0.11948453608247434,79
1764814802.0033596,360101,1.2854,37.74,-7.784597657113827,0.20948453608247775,79
1764814802.1050694,360201,1.2854,37.6,-7.784597657113827,0.06948453608247718,79
1764814802.2070458,360301,1.2854,38.02,-7.784597657113827,0.4894845360824789,79
1764814802.308881,360401,1.2854,37.74,-7.784597657113827,0.20948453608247775,79
1764814802.4122825,360501,1.2854,37.93,-7.784597657113827,0.39948453608247547,79
1764814802.5143383,360601,1.2854,38.02,-7.784597657113827,0.4894845360824789,79
1764814802.6166408,360701,1.2854,37.93,-7.784597657113827,0.39948453608247547,79
1764814802.7186708,360801,1.2805,37.88,-8.136126730927545,0.3494845360824783,79
1764814802.820463,360901,1.2805,38.26,-8.136126730927545,0.7294845360824738,79
1764814802.9229267,361001,1.2854,37.65,-7.784597657113827,0.11948453608247434,79
1764814803.025501,361101,1.2854,37.74,-7.784597657113827,0.20948453608247775,79
1764814803.128046,361201,1.2854,37.88,-7.784597657113827,0.3494845360824783,79
1764814803.2304199,361301,1.2854,37.74,-7.784597657113827,0.20948453608247775,78
1764814803.332458,361401,1.2854,37.97,-7.784597657113827,0.4394845360824746,78
1764814803.4339972,361501,1.2854,37.65,-7.784597657113827,0.11948453608247434,78
1764814803.5359466,361601,1.2854,37.69,-7.784597657113827,0.15948453608247348,78
1764814803.6386576,361701,1.2854,37.97,-7.784597657113827,0.4394845360824746,78
1764814803.74119,361801,1.2854,37.93,-7.784597657113827,0.39948453608247547,77
1764814803.8432114,361901,1.2805,38.02,-8.136126730927545,0.4894845360824789,77
1764814803.9456234,362001,1.2903,37.69,-7.433068583300124,0.15948453608247348,76
1764814804.0492346,362101,1.2854,37.65,-7.784597657113827,0.11948453608247434,76
1764814804.1512463,362201,1.2805,37.88,-8.136126730927545,0.3494845360824783,76
1764814804.2530913,362301,1.2805,37.79,-8.136126730927545,0.2594845360824749,76
1764814804.3548574,362401,1.2854,37.93,-7.784597657113827,0.39948453608247547,76
1764814804.45689,362501,1.2854,37.65,-7.784597657113827,0.11948453608247434,77
1764814804.565305,362601,1.2854,38.02,-7.784597657113827,0.4894845360824789,78
1764814804.668465,362701,1.2805,37.74,-8.136126730927545,0.20948453608247775,79
1764814804.7709866,362801,1.2854,37.69,-7.784597657113827,0.15948453608247348,81
1764814804.8734612,362901,1.2805,37.83,-8.136126730927545,0.29948453608247405,82
1764814804.9755356,363001,1.2805,38.02,-8.136126730927545,0.4894845360824789,83
1764814805.0772846,363101,1.2659,37.37,-9.183539889637778,-0.1605154639175268,83
1764814805.179347,363201,1.2805,37.83,-8.136126730927545,0.29948453608247405,83
1764814805.281102,363301,1.2805,38.07,-8.136126730927545,0.539484536082476,83
1764814805.3833332,363401,1.2805,37.65,-8.136126730927545,0.11948453608247434,83
1764814805.4848998,363501,1.2805,37.83,-8.136126730927545,0.29948453608247405,83
1764814805.5879407,363601,1.2757,38.07,-8.480481742010356,0.539484536082476,83
1764814805.6899822,363701,1.2805,37.97,-8.136126730927545,0.4394845360824746,83
1764814805.792743,363801,1.2805,37.97,-8.136126730927545,0.4394845360824746,83
1764814805.8948472,363901,1.2805,37.74,-8.136126730927545,0.20948453608247775,83
1764814805.9974754,364001,1.2805,38.07,-8.136126730927545,0.539484536082476,83
1764814806.0995376,364101,1.2805,37.6,-8.136126730927545,0.06948453608247718,83
1764814806.2018907,364201,1.2805,38.02,-8.136126730927545,0.4894845360824789,78
1764814806.304052,364301,1.2805,37.65,-8.136126730927545,0.11948453608247434,73
1764814806.4059458,364401,1.2805,37.69,-8.136126730927545,0.15948453608247348,68
1764814806.5083725,364501,1.2757,37.74,-8.480481742010356,0.20948453608247775,62
1764814806.610277,364601,1.2805,37.69,-8.136126730927545,0.15948453608247348,56
1764814806.712107,364701,1.2805,38.02,-8.136126730927545,0.4894845360824789,57
1764814806.8142667,364801,1.2805,37.74,-8.136126730927545,0.20948453608247775,57
1764814806.9162865,364901,1.2805,37.97,-8.136126730927545,0.4394845360824746,56
1764814807.018037,365001,1.2805,37.65,-8.136126730927545,0.11948453608247434,56
1764814807.1198363,365101,1.2805,37.6,-8.136126730927545,0.06948453608247718,55
1764814807.2221863,365201,1.2805,37.74,-8.136126730927545,0.20948453608247775,53
1764814807.324097,365301,1.2805,37.65,-8.136126730927545,0.11948453608247434,51
1764814807.4266868,365401,1.2805,38.12,-8.136126730927545,0.5894845360824732,50
1764814807.5290833,365501,1.2805,38.02,-8.136126730927545,0.4894845360824789,49
1764814807.630912,365601,1.2757,37.83,-8.480481742010356,0.29948453608247405,50
1764814807.7328095,365701,1.2757,37.79,-8.480481742010356,0.2594845360824749,50
1764814807.834371,365801,1.2805,37.74,-8.136126730927545,0.20948453608247775,51
1764814807.936486,365901,1.2757,37.83,-8.480481742010356,0.29948453608247405,52
1764814808.038889,366001,1.2757,38.02,-8.480481742010356,0.4894845360824789,53
1764814808.1409833,366101,1.2708,37.83,-8.832010815824077,0.29948453608247405,52
1764814808.2426739,366201,1.2757,37.83,-8.480481742010356,0.29948453608247405,50
1764814808.3459892,366301,1.2757,37.74,-8.480481742010356,0.20948453608247775,49
1764814808.4477668,366401,1.2757,37.69,-8.480481742010356,0.15948453608247348,47
1764814808.5495813,366501,1.2757,37.65,-8.480481742010356,0.11948453608247434,46
1764814808.6514616,366601,1.2805,37.74,-8.136126730927545,0.20948453608247775,46
1764814808.7535868,366701,1.2805,37.83,-8.136126730927545,0.29948453608247405,46
1764814808.8557274,366801,1.2757,38.02,-8.480481742010356,0.4894845360824789,47
1764814808.9572968,366901,1.2757,37.93,-8.480481742010356,0.39948453608247547,47
1764814809.0591323,367001,1.2757,38.02,-8.480481742010356,0.4894845360824789,48
1764814809.1616027,367101,1.2757,37.88,-8.480481742010356,0.3494845360824783,49
1764814809.2646098,367201,1.2757,37.97,-8.480481742010356,0.4394845360824746,49
1764814809.3666573,367301,1.2757,37.83,-8.480481742010356,0.29948453608247405,48
1764814809.4683034,367401,1.2805,37.74,-8.136126730927545,0.20948453608247775,50
1764814809.5700705,367501,1.2757,37.41,-8.480481742010356,-0.12051546391752765,53
1764814809.6723208,367601,1.2757,37.88,-8.480481742010356,0.3494845360824783,55
1764814809.7745934,367701,1.2805,38.02,-8.136126730927545,0.4894845360824789,59
1764814809.8765845,367801,1.2805,37.69,-8.136126730927545,0.15948453608247348,62
1764814809.9788156,367901,1.2805,37.83,-8.136126730927545,0.29948453608247405,62
1764814810.0804808,368001,1.2805,38.12,-8.136126730927545,0.5894845360824732,63
1764814810.1825588,368101,1.2805,37.65,-8.136126730927545,0.11948453608247434,63
1764814810.284928,368201,1.2805,37.93,-8.136126730927545,0.39948453608247547,64
1764814810.3875866,368301,1.2805,37.83,-8.136126730927545,0.29948453608247405,64
1764814810.490682,368401,1.2805,38.12,-8.136126730927545,0.5894845360824732,64
1764814810.593329,368501,1.2805,37.83,-8.136126730927545,0.29948453608247405,64
1764814810.6958098,368601,1.2757,37.97,-8.480481742010356,0.4394845360824746,64
1764814810.7984047,368701,1.2805,37.79,-8.136126730927545,0.2594845360824749,64
1764814810.9001215,368801,1.2805,37.69,-8.136126730927545,0.15948453608247348,64
1764814811.0015965,368901,1.2805,37.74,-8.136126730927545,0.20948453608247775,64
1764814811.1033158,369001,1.2757,37.93,-8.480481742010356,0.39948453608247547,64
1764814811.205382,369101,1.2805,37.6,-8.136126730927545,0.06948453608247718,63
1764814811.3073592,369201,1.2805,37.65,-8.136126730927545,0.11948453608247434,63
1764814811.4095972,369301,1.2757,37.83,-8.480481742010356,0.29948453608247405,62
1764814811.513127,369401,1.2805,37.93,-8.136126730927545,0.39948453608247547,62
1764814811.616144,369501,1.2805,37.74,-8.136126730927545,0.20948453608247775,62
1764814811.718458,369601,1.2805,38.02,-8.136126730927545,0.4894845360824789,62
1764814811.8204873,369701,1.2757,38.02,-8.480481742010356,0.4894845360824789,62
1764814811.922573,369801,1.2805,38.12,-8.136126730927545,0.5894845360824732,66
1764814812.024818,369901,1.2757,37.74,-8.480481742010356,0.20948453608247775,71
1764814812.1277153,370001,1.2805,37.83,-8.136126730927545,0.29948453608247405,76
1764814812.229718,370101,1.2805,37.69,-8.136126730927545,0.15948453608247348,80
1764814812.3316908,370201,1.2805,38.12,-8.136126730927545,0.5894845360824732,85
1764814812.4335015,370301,1.2854,37.69,-7.784597657113827,0.15948453608247348,85
1764814812.5361571,370401,1.2805,38.02,-8.136126730927545,0.4894845360824789,85
1764814812.6381037,370501,1.2805,37.88,-8.136126730927545,0.3494845360824783,85
1764814812.7402809,370601,1.2757,37.97,-8.480481742010356,0.4394845360824746,85
1764814812.8423305,370701,1.2805,38.12,-8.136126730927545,0.5894845360824732,85
1764814812.9443307,370801,1.2854,37.74,-7.784597657113827,0.20948453608247775,85
1764814813.0464106,370901,1.2854,38.07,-7.784597657113827,0.539484536082476,85
1764814813.1479447,371001,1.2805,37.69,-8.136126730927545,0.15948453608247348,85
1764814813.250101,371101,1.2805,37.88,-8.136126730927545,0.3494845360824783,85
1764814813.3521569,371201,1.2854,37.79,-7.784597657113827,0.2594845360824749,85
1764814813.455353,371301,1.2854,38.12,-7.784597657113827,0.5894845360824732,85
1764814813.5574276,371401,1.2854,38.07,-7.784597657113827,0.539484536082476,85
1764814813.6603942,371501,1.2854,37.69,-7.784597657113827,0.15948453608247348,85
1764814813.7621534,371601,1.2854,37.83,-7.784597657113827,0.29948453608247405,85
1764814813.8638983,371701,1.2805,37.65,-8.136126730927545,0.11948453608247434,85
1764814813.9667964,371801,1.2805,37.88,-8.136126730927545,0.3494845360824783,85
1764814814.0687437,371901,1.2805,37.97,-8.136126730927545,0.4394845360824746,85
1764814814.1705883,372001,1.2805,37.88,-8.136126730927545,0.3494845360824783,85
1764814814.272635,372101,1.2805,37.88,-8.136126730927545,0.3494845360824783,85
1764814814.3754985,372201,1.2854,37.69,-7.784597657113827,0.15948453608247348,85
1764814814.4776428,372301,1.2805,38.02,-8.136126730927545,0.4894845360824789,85
1764814814.580081,372401,1.2805,37.93,-8.136126730927545,0.39948453608247547,85
1764814814.6822534,372501,1.2805,37.79,-8.136126730927545,0.2594845360824749,85
1764814814.784127,372601,1.2854,38.02,-7.784597657113827,0.4894845360824789,85
1764814814.8871222,372701,1.2805,37.83,-8.136126730927545,0.29948453608247405,81
1764814814.9892342,372801,1.2805,37.74,-8.136126730927545,0.20948453608247775,78
1764814815.0912843,372901,1.2805,37.88,-8.136126730927545,0.3494845360824783,74
1764814815.1942177,373001,1.2854,38.12,-7.784597657113827,0.5894845360824732,70
1764814815.2967503,373101,1.2854,37.93,-7.784597657113827,0.39948453608247547,66
1764814815.3991065,373201,1.2854,37.65,-7.784597657113827,0.11948453608247434,66
1764814815.501253,373301,1.2854,38.07,-7.784597657113827,0.539484536082476,66
1764814815.6037152,373401,1.2854,37.83,-7.784597657113827,0.29948453608247405,66
1764814815.707639,373501,1.2854,37.6,-7.784597657113827,0.06948453608247718,66
1764814815.8097994,373601,1.2854,38.07,-7.784597657113827,0.539484536082476,66
1764814815.911981,373701,1.2854,37.69,-7.784597657113827,0.15948453608247348,66
1764814816.0144744,373801,1.2854,38.12,-7.784597657113827,0.5894845360824732,66
1764814816.1163564,373901,1.2854,38.02,-7.784597657113827,0.4894845360824789,66
1764814816.2187521,374001,1.2854,38.12,-7.784597657113827,0.5894845360824732,66
1764814816.321098,374101,1.2854,37.65,-7.784597657113827,0.11948453608247434,66
1764814816.4238503,374201,1.2854,38.07,-7.784597657113827,0.539484536082476,66
1764814816.5274694,374301,1.2854,37.69,-7.784597657113827,0.15948453608247348,66
1764814816.6297576,374401,1.2854,37.97,-7.784597657113827,0.4394845360824746,66
1764814816.7320738,374501,1.2854,37.6,-7.784597657113827,0.06948453608247718,66
1764814816.834736,374601,1.2805,37.93,-8.136126730927545,0.39948453608247547,65
1764814816.9374256,374701,1.2854,37.83,-7.784597657113827,0.29948453608247405,64
1764814817.0397155,374801,1.2805,37.93,-8.136126730927545,0.39948453608247547,63
1764814817.1419914,374901,1.2854,37.97,-7.784597657113827,0.4394845360824746,62
1764814817.2436008,375001,1.2854,37.79,-7.784597657113827,0.2594845360824749,61
1764814817.3456323,375101,1.2805,37.93,-8.136126730927545,0.39948453608247547,61
1764814817.4482262,375201,1.2854,38.12,-7.784597657113827,0.5894845360824732,60
1764814817.550411,375301,1.2854,37.69,-7.784597657113827,0.15948453608247348,59
1764814817.6527283,375401,1.2805,37.88,-8.136126730927545,0.3494845360824783,58
1764814817.7564826,375501,1.2805,38.02,-8.136126730927545,0.4894845360824789,56
1764814817.8581824,375601,1.2805,37.88,-8.136126730927545,0.3494845360824783,56
1764814817.959923,375701,1.2805,38.02,-8.136126730927545,0.4894845360824789,55
1764814818.061513,375801,1.2805,38.02,-8.136126730927545,0.4894845360824789,54
1764814818.1631813,375901,1.2805,38.07,-8.136126730927545,0.539484536082476,54
1764814818.2654238,376001,1.2805,37.65,-8.136126730927545,0.11948453608247434,54
1764814818.3676333,376101,1.2805,38.07,-8.136126730927545,0.539484536082476,54
1764814818.4711165,376201,1.2805,38.07,-8.136126730927545,0.539484536082476,54
1764814818.5736814,376301,1.2805,37.83,-8.136126730927545,0.29948453608247405,54
1764814818.6766763,376401,1.2805,37.93,-8.136126730927545,0.39948453608247547,54
1764814818.7789602,376501,1.2805,37.83,-8.136126730927545,0.29948453608247405,54
1764814818.8815088,376601,1.2805,38.12,-8.136126730927545,0.5894845360824732,54
1764814818.9840841,376701,1.2805,38.07,-8.136126730927545,0.539484536082476,54
1764814819.0865614,376801,1.2805,37.83,-8.136126730927545,0.29948453608247405,54
1764814819.1892076,376901,1.2805,37.74,-8.136126730927545,0.20948453608247775,54
1764814819.2914674,377001,1.2854,37.65,-7.784597657113827,0.11948453608247434,54
1764814819.3943067,377101,1.2805,38.12,-8.136126730927545,0.5894845360824732,53
1764814819.4970253,377201,1.2854,37.74,-7.784597657113827,0.20948453608247775,52
1764814819.5990644,377301,1.2805,37.93,-8.136126730927545,0.39948453608247547,50
1764814819.7018516,377401,1.2854,37.79,-7.784597657113827,0.2594845360824749,49
1764814819.8043258,377501,1.2805,38.12,-8.136126730927545,0.5894845360824732,47
1764814819.9065034,377601,1.2854,37.88,-7.784597657113827,0.3494845360824783,46
1764814820.0084994,377701,1.2854,37.74,-7.784597657113827,0.20948453608247775,46
1764814820.1104796,377801,1.2805,37.93,-8.136126730927545,0.39948453608247547,47
1764814820.2125084,377901,1.2854,38.02,-7.784597657113827,0.4894845360824789,48
1764814820.3150733,378001,1.2805,37.93,-8.136126730927545,0.39948453608247547,49
1764814820.4181335,378101,1.2805,38.02,-8.136126730927545,0.4894845360824789,50
1764814820.520729,378201,1.2757,38.07,-8.480481742010356,0.539484536082476,51
1764814820.623183,378301,1.2757,37.83,-8.480481742010356,0.29948453608247405,51
1764814820.7253737,378401,1.2757,37.93,-8.480481742010356,0.39948453608247547,50
1764814820.8274763,378501,1.2757,37.69,-8.480481742010356,0.15948453608247348,50
1764814820.929241,378601,1.2708,38.02,-8.832010815824077,0.4894845360824789,50
1764814821.0314395,378701,1.2757,38.12,-8.480481742010356,0.5894845360824732,50
1764814821.1348639,378801,1.2757,38.02,-8.480481742010356,0.4894845360824789,50
1764814821.2375917,378901,1.2757,38.16,-8.480481742010356,0.6294845360824723,50
1764814821.3400207,379001,1.2757,37.88,-8.480481742010356,0.3494845360824783,50
1764814821.44335,379101,1.2757,38.16,-8.480481742010356,0.6294845360824723,50
1764814821.5461602,379201,1.2757,37.97,-8.480481742010356,0.4394845360824746,50
1764814821.648562,379301,1.2757,37.83,-8.480481742010356,0.29948453608247405,50
1764814821.7512326,379401,1.2708,37.83,-8.832010815824077,0.29948453608247405,50
1764814821.8537078,379501,1.2708,37.69,-8.832010815824077,0.15948453608247348,50
1764814821.957344,379601,1.2708,37.93,-8.832010815824077,0.39948453608247547,50
1764814822.0595298,379701,1.2708,37.65,-8.832010815824077,0.11948453608247434,50
1764814822.1616387,379801,1.2708,38.12,-8.832010815824077,0.5894845360824732,50
1764814822.2642097,379901,1.2757,37.74,-8.480481742010356,0.20948453608247775,50
1764814822.366556,380001,1.2708,38.02,-8.832010815824077,0.4894845360824789,50
1764814822.4688442,380101,1.2757,38.02,-8.480481742010356,0.4894845360824789,50
1764814822.571203,380201,1.2757,37.79,-8.480481742010356,0.2594845360824749,50
1764814822.6733458,380301,1.2805,37.79,-8.136126730927545,0.2594845360824749,50
1764814822.7748692,380401,1.2757,37.88,-8.480481742010356,0.3494845360824783,50
1764814822.8776314,380501,1.2757,38.12,-8.480481742010356,0.5894845360824732,50
1764814822.9794464,380601,1.2757,37.74,-8.480481742010356,0.20948453608247775,50
1764814823.0819209,380701,1.2708,37.69,-8.832010815824077,0.15948453608247348,49
1764814823.1838243,380801,1.2561,38.07,-9.8865980372652,0.539484536082476,48
1764814823.2863688,380901,1.2414,37.69,-10.941185258706323,0.15948453608247348,47
1764814823.3886418,381001,1.2317,38.12,-11.637069343602855,0.5894845360824732,47
1764814823.4914925,381101,1.2268,37.93,-11.988598417416572,0.39948453608247547,45
1764814823.5932229,381201,1.217,38.02,-12.691656565043976,0.4894845360824789,45
1764814823.6952035,381301,1.2023,37.88,-13.746243786485119,0.3494845360824783,45
1764814823.7971194,381401,1.1975,37.97,-14.09059879756793,0.4394845360824746,45
1764814823.899123,381501,1.1975,38.02,-14.09059879756793,0.4894845360824789,45
1764814824.0013516,381601,1.1975,38.21,-14.09059879756793,0.6794845360824766,45
1764814824.1041865,381701,1.2072,37.83,-13.3947147126714,0.29948453608247405,45
1764814824.2070994,381801,1.217,37.74,-12.691656565043976,0.20948453608247775,45
1764814824.309254,381901,1.2268,37.74,-11.988598417416572,0.20948453608247775,45
1764814824.4114034,382001,1.2317,37.83,-11.637069343602855,0.29948453608247405,45
1764814824.513989,382101,1.2366,38.12,-11.285540269789152,0.5894845360824732,45
1764814824.615951,382201,1.2463,37.79,-10.58965618489262,0.2594845360824749,45
1764814824.7186108,382301,1.2512,37.79,-10.238127111078903,0.2594845360824749,45
1764814824.8212962,382401,1.2512,37.83,-10.238127111078903,0.29948453608247405,45
1764814824.9232895,382501,1.2561,37.83,-9.8865980372652,0.29948453608247405,45
1764814825.0254743,382601,1.2561,38.07,-9.8865980372652,0.539484536082476,45
1764814825.1280637,382701,1.2561,38.12,-9.8865980372652,0.5894845360824732,45
1764814825.2363002,382801,1.261,37.79,-9.535068963451497,0.2594845360824749,45
1764814825.3387017,382901,1.261,38.02,-9.535068963451497,0.4894845360824789,45
1764814825.441032,383001,1.2659,37.79,-9.183539889637778,0.2594845360824749,45
1764814825.5437105,383101,1.2708,37.69,-8.832010815824077,0.15948453608247348,45
1764814825.6461682,383201,1.2659,37.88,-9.183539889637778,0.3494845360824783,45
1764814825.7482948,383301,1.2708,37.97,-8.832010815824077,0.4394845360824746,45
1764814825.8524559,383401,1.2708,38.02,-8.832010815824077,0.4894845360824789,45
1764814825.9550564,383501,1.2659,38.02,-9.183539889637778,0.4894845360824789,45
1764814826.0569706,383601,1.261,37.79,-9.535068963451497,0.2594845360824749,45
1764814826.1596763,383701,1.261,37.88,-9.535068963451497,0.3494845360824783,45
1764814826.2616668,383801,1.2512,38.12,-10.238127111078903,0.5894845360824732,45
1764814826.3641233,383901,1.2512,38.02,-10.238127111078903,0.4894845360824789,45
1764814826.4669237,384001,1.2561,37.69,-9.8865980372652,0.15948453608247348,45
1764814826.570155,384101,1.261,37.74,-9.535068963451497,0.20948453608247775,45
1764814826.6723251,384201,1.261,38.12,-9.535068963451497,0.5894845360824732,45
1764814826.7748914,384301,1.2708,37.79,-8.832010815824077,0.2594845360824749,45
1764814826.8770845,384401,1.2659,37.69,-9.183539889637778,0.15948453608247348,45
1764814826.9788868,384501,1.2708,37.97,-8.832010815824077,0.4394845360824746,45
1764814827.0810685,384601,1.2708,37.69,-8.832010815824077,0.15948453608247348,45
1764814827.1835682,384701,1.2659,38.02,-9.183539889637778,0.4894845360824789,45
1764814827.2864408,384801,1.2757,38.12,-8.480481742010356,0.5894845360824732,45
1764814827.3890827,384901,1.2757,37.79,-8.480481742010356,0.2594845360824749,45
1764814827.491291,385001,1.2757,37.69,-8.480481742010356,0.15948453608247348,45
1764814827.5938246,385101,1.2757,38.12,-8.480481742010356,0.5894845360824732,45
1764814827.696242,385201,1.2708,37.97,-8.832010815824077,0.4394845360824746,45
1764814827.798682,385301,1.2757,37.97,-8.480481742010356,0.4394845360824746,45
1764814827.9004855,385401,1.2805,37.69,-8.136126730927545,0.15948453608247348,45
1764814828.002987,385501,1.2757,38.12,-8.480481742010356,0.5894845360824732,45
1764814828.1050181,385601,1.2805,37.79,-8.136126730927545,0.2594845360824749,45
1764814828.2074356,385701,1.2854,37.79,-7.784597657113827,0.2594845360824749,45
1764814828.3098826,385801,1.2805,37.79,-8.136126730927545,0.2594845360824749,45
1764814828.4121404,385901,1.2854,37.74,-7.784597657113827,0.20948453608247775,45
1764814828.5148535,386001,1.2854,37.69,-7.784597657113827,0.15948453608247348,45
1764814828.6170049,386101,1.2805,37.79,-8.136126730927545,0.2594845360824749,45
1764814828.7210438,386201,1.2854,38.02,-7.784597657113827,0.4894845360824789,45
1764814828.8233232,386301,1.2757,38.02,-8.480481742010356,0.4894845360824789,45
1764814828.9254425,386401,1.2854,38.12,-7.784597657113827,0.5894845360824732,45
1764814829.0277567,386501,1.2854,37.97,-7.784597657113827,0.4394845360824746,45
1764814829.130393,386601,1.2757,37.69,-8.480481742010356,0.15948453608247348,45
1764814829.234057,386701,1.2854,38.02,-7.784597657113827,0.4894845360824789,45
1764814829.3364315,386801,1.2854,38.02,-7.784597657113827,0.4894845360824789,45
1764814829.4384441,386901,1.2903,37.88,-7.433068583300124,0.3494845360824783,45
1764814829.540523,387001,1.2854,37.97,-7.784597657113827,0.4394845360824746,45
1764814829.6429071,387101,1.2903,37.83,-7.433068583300124,0.29948453608247405,45
1764814829.7449493,387201,1.2854,38.07,-7.784597657113827,0.539484536082476,45
1764814829.8471906,387301,1.2854,37.88,-7.784597657113827,0.3494845360824783,45
1764814829.9513412,387401,1.2854,38.12,-7.784597657113827,0.5894845360824732,45
1764814830.0539362,387501,1.2854,38.12,-7.784597657113827,0.5894845360824732,45
1764814830.155808,387601,1.2903,37.74,-7.433068583300124,0.20948453608247775,45
1764814830.2578661,387701,1.2903,38.02,-7.433068583300124,0.4894845360824789,45
1764814830.3600545,387801,1.2854,38.02,-7.784597657113827,0.4894845360824789,45
1764814830.4620924,387901,1.2903,37.83,-7.433068583300124,0.29948453608247405,45
1764814830.566137,388001,1.2854,37.88,-7.784597657113827,0.3494845360824783,45
1764814830.668669,388101,1.2903,37.74,-7.433068583300124,0.20948453608247775,45
1764814830.7711716,388201,1.2854,37.93,-7.784597657113827,0.39948453608247547,45
1764814830.873107,388301,1.2854,38.02,-7.784597657113827,0.4894845360824789,45
1764814830.9752743,388401,1.2854,37.69,-7.784597657113827,0.15948453608247348,45
1764814831.0770693,388501,1.2903,37.97,-7.433068583300124,0.4394845360824746,45
1764814831.1804981,388601,1.2903,38.02,-7.433068583300124,0.4894845360824789,45
1764814831.2831163,388701,1.2903,38.16,-7.433068583300124,0.6294845360824723,45
1764814831.3850656,388801,1.2903,38.21,-7.433068583300124,0.6794845360824766,45
1764814831.4871807,388901,1.2854,38.12,-7.784597657113827,0.5894845360824732,45
1764814831.5889652,389001,1.2903,38.02,-7.433068583300124,0.4894845360824789,45
1764814831.691489,389101,1.2903,37.97,-7.433068583300124,0.4394845360824746,45
1764814831.7939851,389201,1.2903,37.97,-7.433068583300124,0.4394845360824746,45
1764814831.8970058,389301,1.2903,37.88,-7.433068583300124,0.3494845360824783,45
1764814831.9995751,389401,1.2952,37.74,-7.081539509486421,0.20948453608247775,45
1764814832.1020513,389501,1.2952,37.79,-7.081539509486421,0.2594845360824749,45
1764814832.2040832,389601,1.2952,38.02,-7.081539509486421,0.4894845360824789,45
1764814832.3063831,389701,1.2903,38.02,-7.433068583300124,0.4894845360824789,45
1764814832.4083781,389801,1.2903,38.16,-7.433068583300124,0.6294845360824723,45
1764814832.5102518,389901,1.2952,37.74,-7.081539509486421,0.20948453608247775,45
1764814832.6127608,390001,1.2952,38.07,-7.081539509486421,0.539484536082476,45
1764814832.7151625,390101,1.2903,37.97,-7.433068583300124,0.4394845360824746,45
1764814832.8176434,390201,1.2903,38.16,-7.433068583300124,0.6294845360824723,45
1764814832.9194672,390301,1.2903,37.93,-7.433068583300124,0.39948453608247547,45
1764814833.0216148,390401,1.2952,38.07,-7.081539509486421,0.539484536082476,45
1764814833.123963,390501,1.2952,37.74,-7.081539509486421,0.20948453608247775,45
1764814833.2262397,390601,1.2903,37.97,-7.433068583300124,0.4394845360824746,45
1764814833.3285966,390701,1.2952,37.88,-7.081539509486421,0.3494845360824783,45
1764814833.4309437,390801,1.2903,37.97,-7.433068583300124,0.4394845360824746,45
1764814833.536713,390901,1.2952,37.79,-7.081539509486421,0.2594845360824749,45
1764814833.639039,391001,1.2952,38.12,-7.081539509486421,0.5894845360824732,45
1764814833.7411146,391101,1.2952,37.97,-7.081539509486421,0.4394845360824746,45
1764814833.8441331,391201,1.2952,37.97,-7.081539509486421,0.4394845360824746,45
1764814833.946223,391301,1.2952,38.31,-7.081539509486421,0.779484536082478,45
1764814834.0496588,391401,1.2952,38.12,-7.081539509486421,0.5894845360824732,45
1764814834.1517537,391501,1.2952,37.79,-7.081539509486421,0.2594845360824749,45
1764814834.2549093,391601,1.2952,37.69,-7.081539509486421,0.15948453608247348,45
1764814834.3574584,391701,1.2952,37.97,-7.081539509486421,0.4394845360824746,45
1764814834.4595103,391801,1.3001,37.74,-6.730010435672703,0.20948453608247775,49
1764814834.5624182,391901,1.2952,38.16,-7.081539509486421,0.6294845360824723,53
1764814834.6651175,392001,1.2952,37.97,-7.081539509486421,0.4394845360824746,56
1764814834.768383,392101,1.2952,38.12,-7.081539509486421,0.5894845360824732,60
1764814834.870364,392201,1.2952,38.02,-7.081539509486421,0.4894845360824789,64
1764814834.972427,392301,1.2952,38.16,-7.081539509486421,0.6294845360824723,63
1764814835.075831,392401,1.2952,38.07,-7.081539509486421,0.539484536082476,63
1764814835.1783366,392501,1.2903,37.97,-7.433068583300124,0.4394845360824746,63
1764814835.280617,392601,1.2952,37.97,-7.081539509486421,0.4394845360824746,63
1764814835.3827364,392701,1.2952,37.83,-7.081539509486421,0.29948453608247405,63
1764814835.4849946,392801,1.2952,37.88,-7.081539509486421,0.3494845360824783,63
1764814835.5882013,392901,1.2952,37.74,-7.081539509486421,0.20948453608247775,63
1764814835.6905816,393001,1.2952,38.12,-7.081539509486421,0.5894845360824732,63
1764814835.7927818,393101,1.2952,37.69,-7.081539509486421,0.15948453608247348,63
1764814835.8955405,393201,1.2708,37.88,-8.832010815824077,0.3494845360824783,63
1764814835.9975352,393301,1.2708,37.97,-8.832010815824077,0.4394845360824746,62
1764814836.1006389,393401,1.2757,37.93,-8.480481742010356,0.39948453608247547,62
1764814836.2029507,393501,1.2805,37.79,-8.136126730927545,0.2594845360824749,62
1764814836.305325,393601,1.2805,37.74,-8.136126730927545,0.20948453608247775,62
1764814836.408139,393701,1.2805,38.02,-8.136126730927545,0.4894845360824789,62
1764814836.5121841,393801,1.2805,38.07,-8.136126730927545,0.539484536082476,62
1764814836.6158519,393901,1.2805,37.83,-8.136126730927545,0.29948453608247405,62
1764814836.7179766,394001,1.2854,38.12,-7.784597657113827,0.5894845360824732,62
1764814836.820148,394101,1.2854,37.88,-7.784597657113827,0.3494845360824783,62
1764814836.923383,394201,1.2903,37.79,-7.433068583300124,0.2594845360824749,62
1764814837.0267265,394301,1.2854,38.16,-7.784597657113827,0.6294845360824723,62
1764814837.1290796,394401,1.2757,38.12,-8.480481742010356,0.5894845360824732,62
1764814837.2328355,394501,1.2757,38.02,-8.480481742010356,0.4894845360824789,62
1764814837.3349576,394601,1.2805,38.02,-8.136126730927545,0.4894845360824789,62
1764814837.4374924,394701,1.2805,37.79,-8.136126730927545,0.2594845360824749,62
1764814837.5402193,394801,1.2854,37.83,-7.784597657113827,0.29948453608247405,62
1764814837.6428814,394901,1.2805,38.07,-8.136126730927545,0.539484536082476,62
1764814837.7469091,395001,1.2757,38.02,-8.480481742010356,0.4894845360824789,62
1764814837.8492963,395101,1.2805,37.93,-8.136126730927545,0.39948453608247547,62
1764814837.9513798,395201,1.2854,37.74,-7.784597657113827,0.20948453608247775,62
1764814838.0532923,395301,1.2854,37.79,-7.784597657113827,0.2594845360824749,62
1764814838.156255,395401,1.2757,38.16,-8.480481742010356,0.6294845360824723,62
1764814838.260286,395501,1.261,38.12,-9.535068963451497,0.5894845360824732,62
1764814838.3635905,395601,1.2512,37.79,-10.238127111078903,0.2594845360824749,62
1764814838.4664347,395701,1.2366,38.02,-11.285540269789152,0.4894845360824789,62
1764814838.5687592,395801,1.2268,37.74,-11.988598417416572,0.20948453608247775,62
1764814838.6706593,395901,1.2219,37.93,-12.340127491230275,0.39948453608247547,62
1764814838.7732036,396001,1.217,37.88,-12.691656565043976,0.3494845360824783,62
1764814838.8754587,396101,1.217,38.02,-12.691656565043976,0.4894845360824789,62
1764814838.9781818,396201,1.2072,38.21,-13.3947147126714,0.6794845360824766,62
1764814839.0812993,396301,1.2121,37.88,-13.043185638857697,0.3494845360824783,62
1764814839.1836073,396401,1.1975,37.83,-14.09059879756793,0.29948453608247405,62
1764814839.2852821,396501,1.1975,37.93,-14.09059879756793,0.39948453608247547,62
1764814839.387284,396601,1.1926,37.93,-14.442127871381633,0.39948453608247547,62
1764814839.4889548,396701,1.1877,37.88,-14.79365694519535,0.3494845360824783,62
1764814839.591079,396801,1.1828,37.97,-15.145186019009053,0.4394845360824746,62
1764814839.6934838,396901,1.1828,38.02,-15.145186019009053,0.4894845360824789,62
1764814839.7956576,397001,1.1779,38.16,-15.496715092822772,0.6294845360824723,62
1764814839.8976052,397101,1.1779,37.79,-15.496715092822772,0.2594845360824749,62
1764814840.000557,397201,1.173,38.02,-15.848244166636475,0.4894845360824789,62
1764814840.1023874,397301,1.1681,38.16,-16.199773240450195,0.6294845360824723,62
1764814840.2043226,397401,1.173,38.02,-15.848244166636475,0.4894845360824789,62
1764814840.3064902,397501,1.1877,38.07,-14.79365694519535,0.539484536082476,62
1764814840.409346,397601,1.1926,37.97,-14.442127871381633,0.4394845360824746,62
1764814840.5135252,397701,1.2023,37.97,-13.746243786485119,0.4394845360824746,62
1764814840.6155396,397801,1.2121,37.88,-13.043185638857697,0.3494845360824783,62
1764814840.7180262,397901,1.217,37.88,-12.691656565043976,0.3494845360824783,62
1764814840.820579,398001,1.2268,37.93,-11.988598417416572,0.39948453608247547,62
1764814840.9227705,398101,1.2268,37.83,-11.988598417416572,0.29948453608247405,62
1764814841.0254858,398201,1.2317,37.88,-11.637069343602855,0.3494845360824783,62
1764814841.1275356,398301,1.2366,38.12,-11.285540269789152,0.5894845360824732,62
1764814841.229419,398401,1.2414,37.88,-10.941185258706323,0.3494845360824783,62
1764814841.3312318,398501,1.2414,37.88,-10.941185258706323,0.3494845360824783,62
1764814841.4334219,398601,1.2463,37.88,-10.58965618489262,0.3494845360824783,62
1764814841.5357804,398701,1.2366,37.83,-11.285540269789152,0.29948453608247405,62
1764814841.6377163,398801,1.2317,37.93,-11.637069343602855,0.39948453608247547,62
1764814841.7401037,398901,1.2268,38.07,-11.988598417416572,0.539484536082476,62
1764814841.8428288,399001,1.2268,37.83,-11.988598417416572,0.29948453608247405,62
1764814841.9460893,399101,1.2219,37.83,-12.340127491230275,0.29948453608247405,62
1764814842.0483098,399201,1.2219,37.79,-12.340127491230275,0.2594845360824749,62
1764814842.1505935,399301,1.217,38.16,-12.691656565043976,0.6294845360824723,62
1764814842.2537446,399401,1.217,37.88,-12.691656565043976,0.3494845360824783,62
1764814842.3558943,399501,1.217,37.79,-12.691656565043976,0.2594845360824749,62
1764814842.458266,399601,1.2121,37.83,-13.043185638857697,0.29948453608247405,62
1764814842.560574,399701,1.2121,37.88,-13.043185638857697,0.3494845360824783,62
1764814842.6624722,399801,1.2072,38.07,-13.3947147126714,0.539484536082476,62
1764814842.7653775,399901,1.2121,37.88,-13.043185638857697,0.3494845360824783,62
1764814842.8677669,400001,1.217,37.93,-12.691656565043976,0.39948453608247547,62
1764814842.970452,400101,1.2268,38.21,-11.988598417416572,0.6794845360824766,62
1764814843.073255,400201,1.2268,37.97,-11.988598417416572,0.4394845360824746,62
1764814843.175371,400301,1.2366,38.12,-11.285540269789152,0.5894845360824732,62
1764814843.278041,400401,1.2366,38.16,-11.285540269789152,0.6294845360824723,62
1764814843.3802898,400501,1.2414,38.02,-10.941185258706323,0.4894845360824789,62
1764814843.484352,400601,1.2414,37.93,-10.941185258706323,0.39948453608247547,62
1764814843.5864122,400701,1.2366,37.93,-11.285540269789152,0.39948453608247547,62
1764814843.6888094,400801,1.2317,38.16,-11.637069343602855,0.6294845360824723,62
1764814843.791682,400901,1.2268,37.97,-11.988598417416572,0.4394845360824746,62
1764814843.8940687,401001,1.2268,37.83,-11.988598417416572,0.29948453608247405,62
1764814843.9961162,401101,1.2219,38.12,-12.340127491230275,0.5894845360824732,62
1764814844.0982978,401201,1.2219,37.97,-12.340127491230275,0.4394845360824746,62
1764814844.2004182,401301,1.217,38.16,-12.691656565043976,0.6294845360824723,62
1764814844.3028238,401401,1.217,37.88,-12.691656565043976,0.3494845360824783,62
1764814844.4053276,401501,1.217,38.07,-12.691656565043976,0.539484536082476,62
1764814844.5074565,401601,1.217,38.26,-12.691656565043976,0.7294845360824738,62
1764814844.609455,401701,1.217,37.83,-12.691656565043976,0.29948453608247405,62
1764814844.711815,401801,1.2219,37.79,-12.340127491230275,0.2594845360824749,62
1764814844.8142605,401901,1.2268,37.83,-11.988598417416572,0.29948453608247405,62
1764814844.916357,402001,1.2268,38.12,-11.988598417416572,0.5894845360824732,62
1764814845.0189059,402101,1.2317,37.79,-11.637069343602855,0.2594845360824749,62
1764814845.1216996,402201,1.2366,37.83,-11.285540269789152,0.29948453608247405,62
1764814845.2239976,402301,1.2366,38.16,-11.285540269789152,0.6294845360824723,62
1764814845.3265505,402401,1.2414,37.79,-10.941185258706323,0.2594845360824749,62
1764814845.4292412,402501,1.2463,37.88,-10.58965618489262,0.3494845360824783,62
1764814845.5317957,402601,1.2463,38.12,-10.58965618489262,0.5894845360824732,62
1764814845.6342003,402701,1.2512,37.93,-10.238127111078903,0.39948453608247547,62
1764814845.7361293,402801,1.2512,38.07,-10.238127111078903,0.539484536082476,62
1764814845.8390691,402901,1.2512,37.93,-10.238127111078903,0.39948453608247547,62
1764814845.941612,403001,1.2512,37.93,-10.238127111078903,0.39948453608247547,62
1764814846.043765,403101,1.2561,37.74,-9.8865980372652,0.20948453608247775,62
1764814846.1455383,403201,1.2561,37.97,-9.8865980372652,0.4394845360824746,62
1764814846.2477007,403301,1.2561,38.16,-9.8865980372652,0.6294845360824723,62
1764814846.3501165,403401,1.261,38.16,-9.535068963451497,0.6294845360824723,62
1764814846.4522588,403501,1.2561,37.97,-9.8865980372652,0.4394845360824746,62
1764814846.555086,403601,1.261,38.02,-9.535068963451497,0.4894845360824789,62
1764814846.6571057,403701,1.261,38.16,-9.535068963451497,0.6294845360824723,62
1764814846.75969,403801,1.2659,38.12,-9.183539889637778,0.5894845360824732,62
1764814846.861798,403901,1.2659,37.88,-9.183539889637778,0.3494845360824783,62
1764814846.9643786,404001,1.2659,38.16,-9.183539889637778,0.6294845360824723,62
1764814847.0663795,404101,1.2659,37.93,-9.183539889637778,0.39948453608247547,62
1764814847.1681378,404201,1.2659,38.26,-9.183539889637778,0.7294845360824738,62
1764814847.2704473,404301,1.2659,37.74,-9.183539889637778,0.20948453608247775,62
1764814847.372731,404401,1.2659,37.74,-9.183539889637778,0.20948453608247775,62
1764814847.4761355,404501,1.2659,38.21,-9.183539889637778,0.6794845360824766,62
1764814847.5783021,404601,1.2708,38.16,-8.832010815824077,0.6294845360824723,62
1764814847.6800907,404701,1.2659,38.21,-9.183539889637778,0.6794845360824766,62
1764814847.781984,404801,1.2708,38.16,-8.832010815824077,0.6294845360824723,62
1764814847.8840144,404901,1.2708,38.31,-8.832010815824077,0.779484536082478,62
1764814847.9861412,405001,1.2708,37.88,-8.832010815824077,0.3494845360824783,62
1764814848.089009,405101,1.2659,38.02,-9.183539889637778,0.4894845360824789,62
1764814848.1911588,405201,1.2708,37.79,-8.832010815824077,0.2594845360824749,62
1764814848.2934604,405301,1.2708,37.88,-8.832010815824077,0.3494845360824783,62
1764814848.395134,405401,1.2561,38.02,-9.8865980372652,0.4894845360824789,62
1764814848.4971004,405501,1.2512,37.97,-10.238127111078903,0.4394845360824746,62
1764814848.600085,405601,1.261,37.79,-9.535068963451497,0.2594845360824749,62
1764814848.7027328,405701,1.2561,37.79,-9.8865980372652,0.2594845360824749,62
1764814848.8052475,405801,1.2512,38.12,-10.238127111078903,0.5894845360824732,62
1764814848.909066,405901,1.2414,37.79,-10.941185258706323,0.2594845360824749,62
1764814849.01105,406001,1.2366,37.83,-11.285540269789152,0.29948453608247405,62
1764814849.113824,406101,1.2317,38.07,-11.637069343602855,0.539484536082476,62
1764814849.2161477,406201,1.2268,37.74,-11.988598417416572,0.20948453608247775,62
1764814849.318511,406301,1.2268,38.21,-11.988598417416572,0.6794845360824766,62
1764814849.420851,406401,1.2268,37.79,-11.988598417416572,0.2594845360824749,62
1764814849.5239978,406501,1.2268,37.79,-11.988598417416572,0.2594845360824749,62
1764814849.626116,406601,1.217,37.69,-12.691656565043976,0.15948453608247348,62
1764814849.728142,406701,1.2023,37.83,-13.746243786485119,0.29948453608247405,62
1764814849.8302925,406801,1.217,38.07,-12.691656565043976,0.539484536082476,62
1764814849.9325962,406901,1.217,38.16,-12.691656565043976,0.6294845360824723,62
1764814850.0355606,407001,1.217,38.07,-12.691656565043976,0.539484536082476,62
1764814850.137957,407101,1.2121,38.16,-13.043185638857697,0.6294845360824723,62
1764814850.2402198,407201,1.2072,38.21,-13.3947147126714,0.6794845360824766,62
1764814850.3421586,407301,1.2121,38.02,-13.043185638857697,0.4894845360824789,62
1764814850.4442687,407401,1.2121,38.07,-13.043185638857697,0.539484536082476,62
1764814850.546103,407501,1.2121,37.79,-13.043185638857697,0.2594845360824749,62
1764814850.6485405,407601,1.2072,38.16,-13.3947147126714,0.6294845360824723,62
1764814850.7511635,407701,1.2072,38.12,-13.3947147126714,0.5894845360824732,62
1764814850.8534577,407801,1.2121,38.12,-13.043185638857697,0.5894845360824732,62
1764814850.956669,407901,1.2072,38.16,-13.3947147126714,0.6294845360824723,62
1764814851.058653,408001,1.2121,38.02,-13.043185638857697,0.4894845360824789,62
1764814851.160711,408101,1.2072,37.97,-13.3947147126714,0.4394845360824746,62
1764814851.263312,408201,1.2072,38.12,-13.3947147126714,0.5894845360824732,62
1764814851.365384,408301,1.2072,37.79,-13.3947147126714,0.2594845360824749,62
1764814851.4679818,408401,1.2121,37.74,-13.043185638857697,0.20948453608247775,62
1764814851.5703747,408501,1.2072,37.74,-13.3947147126714,0.20948453608247775,62
1764814851.6740327,408601,1.2121,37.97,-13.043185638857697,0.4394845360824746,62
1764814851.7764015,408701,1.2072,38.16,-13.3947147126714,0.6294845360824723,62
1764814851.8788877,408801,1.2072,38.12,-13.3947147126714,0.5894845360824732,62
1764814851.9810321,408901,1.2121,37.97,-13.043185638857697,0.4394845360824746,62
1764814852.0844834,409001,1.2121,37.79,-13.043185638857697,0.2594845360824749,62
1764814852.1876707,409101,1.2121,38.02,-13.043185638857697,0.4894845360824789,62
1764814852.2915277,409201,1.2072,37.88,-13.3947147126714,0.3494845360824783,62
1764814852.3965218,409301,1.2072,38.21,-13.3947147126714,0.6794845360824766,62
1764814852.505937,409401,1.2072,38.12,-13.3947147126714,0.5894845360824732,62
1764814852.608048,409501,1.2072,38.16,-13.3947147126714,0.6294845360824723,62
1764814852.7102947,409601,1.2072,38.21,-13.3947147126714,0.6794845360824766,62
1764814852.8127902,409701,1.2072,38.16,-13.3947147126714,0.6294845360824723,62
1764814852.915244,409801,1.2072,38.31,-13.3947147126714,0.779484536082478,62
1764814853.0171723,409901,1.2072,37.74,-13.3947147126714,0.20948453608247775,62
1764814853.1192932,410001,1.2072,37.69,-13.3947147126714,0.15948453608247348,62
1764814853.2215526,410101,1.2072,38.07,-13.3947147126714,0.539484536082476,62
1764814853.3234706,410201,1.2023,38.16,-13.746243786485119,0.6294845360824723,62
1764814853.4258687,410301,1.2072,37.93,-13.3947147126714,0.39948453608247547,62
1764814853.5306113,410401,1.2072,37.79,-13.3947147126714,0.2594845360824749,62
1764814853.6334217,410501,1.2072,38.16,-13.3947147126714,0.6294845360824723,62
1764814853.7361856,410601,1.2072,37.93,-13.3947147126714,0.39948453608247547,62
1764814853.8391232,410701,1.2121,37.79,-13.043185638857697,0.2594845360824749,62
1764814853.9408758,410801,1.2072,37.83,-13.3947147126714,0.29948453608247405,62
1764814854.0428405,410901,1.2072,38.12,-13.3947147126714,0.5894845360824732,62
1764814854.1450274,411001,1.2072,38.21,-13.3947147126714,0.6794845360824766,62
1764814854.247646,411101,1.2023,38.02,-13.746243786485119,0.4894845360824789,62
1764814854.3509774,411201,1.2072,38.12,-13.3947147126714,0.5894845360824732,62
1764814854.4530034,411301,1.2023,37.97,-13.746243786485119,0.4394845360824746,62
1764814854.5551465,411401,1.2023,37.93,-13.746243786485119,0.39948453608247547,62
1764814854.656905,411501,1.2072,37.74,-13.3947147126714,0.20948453608247775,62
1764814854.7589307,411601,1.2072,38.16,-13.3947147126714,0.6294845360824723,62
1764814854.8614318,411701,1.2023,38.16,-13.746243786485119,0.6294845360824723,62
1764814854.963927,411801,1.2072,37.69,-13.3947147126714,0.15948453608247348,62
1764814855.0666897,411901,1.2023,37.97,-13.746243786485119,0.4394845360824746,62
1764814855.1690614,412001,1.2072,37.74,-13.3947147126714,0.20948453608247775,62
1764814855.271093,412101,1.1975,37.93,-14.09059879756793,0.39948453608247547,62
1764814855.3732097,412201,1.2072,38.16,-13.3947147126714,0.6294845360824723,62
1764814855.4753623,412301,1.2072,38.07,-13.3947147126714,0.539484536082476,62
1764814855.5774512,412401,1.2072,37.79,-13.3947147126714,0.2594845360824749,62
1764814855.679758,412501,1.2072,37.79,-13.3947147126714,0.2594845360824749,62
1764814855.781969,412601,1.2072,38.02,-13.3947147126714,0.4894845360824789,62
1764814855.8845959,412701,1.2072,38.16,-13.3947147126714,0.6294845360824723,62
1764814855.9867067,412801,1.2072,37.88,-13.3947147126714,0.3494845360824783,62
1764814856.088892,412901,1.2072,38.16,-13.3947147126714,0.6294845360824723,62
1764814856.190885,413001,1.2072,37.93,-13.3947147126714,0.39948453608247547,62
1764814856.2926748,413101,1.2072,38.07,-13.3947147126714,0.539484536082476,62
1764814856.3953567,413201,1.2072,37.74,-13.3947147126714,0.20948453608247775,62
1764814856.4993825,413301,1.2072,37.79,-13.3947147126714,0.2594845360824749,62
1764814856.6017933,413401,1.2072,38.12,-13.3947147126714,0.5894845360824732,62
1764814856.703887,413501,1.2072,38.16,-13.3947147126714,0.6294845360824723,62
1764814856.805677,413601,1.2072,38.12,-13.3947147126714,0.5894845360824732,62
1764814856.9080012,413701,1.2072,37.79,-13.3947147126714,0.2594845360824749,62
1764814857.0099585,413801,1.2072,38.12,-13.3947147126714,0.5894845360824732,62
1764814857.1118622,413901,1.2072,38.16,-13.3947147126714,0.6294845360824723,62
1764814857.2143083,414001,1.2072,37.88,-13.3947147126714,0.3494845360824783,62
1764814857.3163605,414101,1.2072,37.88,-13.3947147126714,0.3494845360824783,62
1764814857.4184911,414201,1.2072,37.79,-13.3947147126714,0.2594845360824749,62
1764814857.5205216,414301,1.2072,38.02,-13.3947147126714,0.4894845360824789,62
1764814857.6222954,414401,1.2072,37.88,-13.3947147126714,0.3494845360824783,62
1764814857.7249546,414501,1.2072,38.12,-13.3947147126714,0.5894845360824732,62
1764814857.8272235,414601,1.2072,37.93,-13.3947147126714,0.39948453608247547,62
1764814857.9296327,414701,1.2072,38.02,-13.3947147126714,0.4894845360824789,62
1764814858.032863,414801,1.2072,37.74,-13.3947147126714,0.20948453608247775,62
1764814858.1350324,414901,1.2072,37.93,-13.3947147126714,0.39948453608247547,62
1764814858.2372518,415001,1.2072,37.83,-13.3947147126714,0.29948453608247405,62
1764814858.3389533,415101,1.2072,37.69,-13.3947147126714,0.15948453608247348,62
1764814858.4415624,415201,1.2072,38.16,-13.3947147126714,0.6294845360824723,62
1764814858.544123,415301,1.2072,37.83,-13.3947147126714,0.29948453608247405,62
1764814858.646079,415401,1.2072,38.16,-13.3947147126714,0.6294845360824723,62
1764814858.7488837,415501,1.2072,37.83,-13.3947147126714,0.29948453608247405,62
1764814858.8510456,415601,1.2072,37.74,-13.3947147126714,0.20948453608247775,62
1764814858.9534125,415701,1.2072,37.69,-13.3947147126714,0.15948453608247348,62
1764814859.0554986,415801,1.2072,37.74,-13.3947147126714,0.20948453608247775,62
1764814859.1578078,415901,1.2072,37.74,-13.3947147126714,0.20948453608247775,59
1764814859.2608225,416001,1.2072,38.07,-13.3947147126714,0.539484536082476,56
1764814859.3638244,416101,1.2072,37.74,-13.3947147126714,0.20948453608247775,53
1764814859.4666817,416201,1.2072,37.83,-13.3947147126714,0.29948453608247405,50
1764814859.570148,416301,1.1975,38.07,-14.09059879756793,0.539484536082476,47
1764814859.6720984,416401,1.2072,37.74,-13.3947147126714,0.20948453608247775,47
1764814859.7742243,416501,1.2072,38.16,-13.3947147126714,0.6294845360824723,47
1764814859.8767378,416601,1.2072,37.79,-13.3947147126714,0.2594845360824749,47
1764814859.9792707,416701,1.2072,37.74,-13.3947147126714,0.20948453608247775,50
1764814860.0819185,416801,1.2121,37.79,-13.043185638857697,0.2594845360824749,53
1764814860.183824,416901,1.2072,38.21,-13.3947147126714,0.6794845360824766,53
1764814860.2859669,417001,1.2072,38.02,-13.3947147126714,0.4894845360824789,53
1764814860.3880064,417101,1.2072,37.79,-13.3947147126714,0.2594845360824749,53
1764814860.4903388,417201,1.2072,37.83,-13.3947147126714,0.29948453608247405,53
1764814860.593618,417301,1.2121,37.88,-13.043185638857697,0.3494845360824783,53
1764814860.6964216,417401,1.2072,38.16,-13.3947147126714,0.6294845360824723,53
1764814860.7985165,417501,1.2121,37.88,-13.043185638857697,0.3494845360824783,53
1764814860.9007673,417601,1.2072,37.69,-13.3947147126714,0.15948453608247348,53
1764814861.0026464,417701,1.2121,37.93,-13.043185638857697,0.39948453608247547,53
1764814861.1053627,417801,1.2072,38.12,-13.3947147126714,0.5894845360824732,53
1764814861.207601,417901,1.2121,37.69,-13.043185638857697,0.15948453608247348,53
1764814861.3095553,418001,1.2072,38.16,-13.3947147126714,0.6294845360824723,53
1764814861.4123583,418101,1.2121,37.97,-13.043185638857697,0.4394845360824746,53
1764814861.5142288,418201,1.2121,37.93,-13.043185638857697,0.39948453608247547,53
1764814861.616745,418301,1.2121,37.74,-13.043185638857697,0.20948453608247775,53
1764814861.718783,418401,1.2121,37.97,-13.043185638857697,0.4394845360824746,53
1764814861.8214731,418501,1.2121,37.93,-13.043185638857697,0.39948453608247547,53
1764814861.9240227,418601,1.2121,38.02,-13.043185638857697,0.4894845360824789,53
1764814862.026468,418701,1.2121,38.12,-13.043185638857697,0.5894845360824732,53
1764814862.129449,418801,1.2072,38.12,-13.3947147126714,0.5894845360824732,53
1764814862.231656,418901,1.2121,37.93,-13.043185638857697,0.39948453608247547,53
1764814862.3336568,419001,1.217,38.16,-12.691656565043976,0.6294845360824723,53
1764814862.435582,419101,1.2121,38.12,-13.043185638857697,0.5894845360824732,53
1764814862.537772,419201,1.2121,38.07,-13.043185638857697,0.539484536082476,53
1764814862.6395304,419301,1.2121,37.83,-13.043185638857697,0.29948453608247405,53
1764814862.7417269,419401,1.2121,37.83,-13.043185638857697,0.29948453608247405,53
1764814862.8455095,419501,1.2121,38.16,-13.043185638857697,0.6294845360824723,53
1764814862.949209,419601,1.217,37.79,-12.691656565043976,0.2594845360824749,53
1764814863.051243,419701,1.2121,37.97,-13.043185638857697,0.4394845360824746,53
1764814863.1532722,419801,1.217,38.21,-12.691656565043976,0.6794845360824766,53
1764814863.2553623,419901,1.217,37.83,-12.691656565043976,0.29948453608247405,53
1764814863.3574464,420001,1.2121,37.93,-13.043185638857697,0.39948453608247547,53
1764814863.4600837,420101,1.2121,37.97,-13.043185638857697,0.4394845360824746,53
1764814863.5618713,420201,1.2121,37.74,-13.043185638857697,0.20948453608247775,53
1764814863.6649866,420301,1.2072,37.83,-13.3947147126714,0.29948453608247405,53
1764814863.767565,420401,1.2072,38.16,-13.3947147126714,0.6294845360824723,53
1764814863.870201,420501,1.2072,38.16,-13.3947147126714,0.6294845360824723,53
1764814863.9724934,420601,1.2023,38.12,-13.746243786485119,0.5894845360824732,59
1764814864.0758102,420701,1.2072,38.16,-13.3947147126714,0.6294845360824723,66
1764814864.1779115,420801,1.2072,37.83,-13.3947147126714,0.29948453608247405,72
1764814864.2809649,420901,1.2023,37.69,-13.746243786485119,0.15948453608247348,76
1764814864.3834,421001,1.1975,37.93,-14.09059879756793,0.39948453608247547,80
1764814864.4852726,421101,1.2023,37.97,-13.746243786485119,0.4394845360824746,80
1764814864.587484,421201,1.2023,37.93,-13.746243786485119,0.39948453608247547,80
1764814864.6896296,421301,1.2023,37.88,-13.746243786485119,0.3494845360824783,80
1764814864.792614,421401,1.2023,37.74,-13.746243786485119,0.20948453608247775,80
1764814864.8962982,421501,1.1975,37.97,-14.09059879756793,0.4394845360824746,80
1764814864.9992094,421601,1.2023,38.16,-13.746243786485119,0.6294845360824723,80
1764814865.1013103,421701,1.2023,37.79,-13.746243786485119,0.2594845360824749,80
1764814865.2039585,421801,1.1975,37.88,-14.09059879756793,0.3494845360824783,80
1764814865.3060906,421901,1.1975,38.02,-14.09059879756793,0.4894845360824789,80
1764814865.4086561,422001,1.1975,38.12,-14.09059879756793,0.5894845360824732,80
1764814865.511398,422101,1.1877,38.12,-14.79365694519535,0.5894845360824732,80
1764814865.615396,422201,1.1975,37.93,-14.09059879756793,0.39948453608247547,80
1764814865.7180886,422301,1.1975,38.16,-14.09059879756793,0.6294845360824723,80
1764814865.8204284,422401,1.1975,37.88,-14.09059879756793,0.3494845360824783,80
1764814865.922582,422501,1.1975,37.97,-14.09059879756793,0.4394845360824746,80
1764814866.024632,422601,1.1975,37.79,-14.09059879756793,0.2594845360824749,80
1764814866.1282458,422701,1.1975,37.93,-14.09059879756793,0.39948453608247547,80
1764814866.230666,422801,1.1975,37.93,-14.09059879756793,0.39948453608247547,80
1764814866.3328834,422901,1.1975,37.83,-14.09059879756793,0.29948453608247405,80
1764814866.4349344,423001,1.1975,38.16,-14.09059879756793,0.6294845360824723,80
1764814866.537243,423101,1.1975,38.16,-14.09059879756793,0.6294845360824723,80
1764814866.6423175,423201,1.1975,37.79,-14.09059879756793,0.2594845360824749,80
1764814866.744996,423301,1.1975,37.88,-14.09059879756793,0.3494845360824783,80
1764814866.8473415,423401,1.1975,38.02,-14.09059879756793,0.4894845360824789,80
1764814866.9494896,423501,1.1975,37.93,-14.09059879756793,0.39948453608247547,80
1764814867.0518122,423601,1.1877,37.27,-14.79365694519535,-0.2605154639175211,80
1764814867.1544018,423701,1.1975,37.83,-14.09059879756793,0.29948453608247405,80
1764814867.2572584,423801,1.1926,37.93,-14.442127871381633,0.39948453608247547,80
1764814867.359801,423901,1.1926,37.97,-14.442127871381633,0.4394845360824746,80
1764814867.4620812,424001,1.1877,38.07,-14.79365694519535,0.539484536082476,80
1764814867.5641623,424101,1.1926,38.02,-14.442127871381633,0.4894845360824789,80
1764814867.6665363,424201,1.1926,37.93,-14.442127871381633,0.39948453608247547,80
1764814867.7693698,424301,1.1975,37.79,-14.09059879756793,0.2594845360824749,80
1764814867.8720205,424401,1.1926,38.16,-14.442127871381633,0.6294845360824723,80
1764814867.9741902,424501,1.1926,37.97,-14.442127871381633,0.4394845360824746,80
1764814868.0769486,424601,1.1926,37.74,-14.442127871381633,0.20948453608247775,80
1764814868.1792393,424701,1.1926,38.21,-14.442127871381633,0.6794845360824766,80
1764814868.2814322,424801,1.1926,38.02,-14.442127871381633,0.4894845360824789,80
1764814868.3831599,424901,1.1926,37.79,-14.442127871381633,0.2594845360824749,80
1764814868.48646,425001,1.1926,38.21,-14.442127871381633,0.6794845360824766,80
1764814868.5891335,425101,1.1926,38.12,-14.442127871381633,0.5894845360824732,80
1764814868.691656,425201,1.1926,37.88,-14.442127871381633,0.3494845360824783,80
1764814868.7939847,425301,1.1926,38.12,-14.442127871381633,0.5894845360824732,80
1764814868.8962283,425401,1.1926,38.12,-14.442127871381633,0.5894845360824732,80
1764814868.998371,425501,1.1975,38.16,-14.09059879756793,0.6294845360824723,79
1764814869.100645,425601,1.1926,37.93,-14.442127871381633,0.39948453608247547,78
1764814869.2026494,425701,1.1926,38.07,-14.442127871381633,0.539484536082476,78
1764814869.3049572,425801,1.1926,38.07,-14.442127871381633,0.539484536082476,77
1764814869.407338,425901,1.1926,38.12,-14.442127871381633,0.5894845360824732,76
1764814869.5095534,426001,1.1975,37.83,-14.09059879756793,0.29948453608247405,76
1764814869.6117835,426101,1.1926,37.93,-14.442127871381633,0.39948453608247547,76
1764814869.7150555,426201,1.1975,37.83,-14.09059879756793,0.29948453608247405,76
1764814869.817611,426301,1.1975,38.02,-14.09059879756793,0.4894845360824789,76
1764814869.9202864,426401,1.1926,37.79,-14.442127871381633,0.2594845360824749,76
1764814870.0236402,426501,1.1975,37.79,-14.09059879756793,0.2594845360824749,76
1764814870.126349,426601,1.1975,37.69,-14.09059879756793,0.15948453608247348,76
1764814870.2282803,426701,1.1975,38.16,-14.09059879756793,0.6294845360824723,75
1764814870.3309538,426801,1.1975,38.07,-14.09059879756793,0.539484536082476,74
1764814870.4337716,426901,1.1975,37.74,-14.09059879756793,0.20948453608247775,73
1764814870.536203,427001,1.1975,37.79,-14.09059879756793,0.2594845360824749,71
1764814870.6385138,427101,1.1975,37.69,-14.09059879756793,0.15948453608247348,70
1764814870.7402365,427201,1.1975,37.93,-14.09059879756793,0.39948453608247547,72
1764814870.8421853,427301,1.1975,37.93,-14.09059879756793,0.39948453608247547,74
1764814870.9455156,427401,1.1926,37.97,-14.442127871381633,0.4394845360824746,73
1764814871.047433,427501,1.1975,37.79,-14.09059879756793,0.2594845360824749,71
1764814871.1493573,427601,1.1975,38.12,-14.09059879756793,0.5894845360824732,73
1764814871.2523549,427701,1.2023,37.69,-13.746243786485119,0.15948453608247348,73
1764814871.3552651,427801,1.1926,38.02,-14.442127871381633,0.4894845360824789,72
1764814871.4579625,427901,1.1926,38.02,-14.442127871381633,0.4894845360824789,75
1764814871.5609324,428001,1.1975,38.26,-14.09059879756793,0.7294845360824738,76
1764814871.663371,428101,1.1975,38.12,-14.09059879756793,0.5894845360824732,75
1764814871.7665367,428201,1.1975,38.16,-14.09059879756793,0.6294845360824723,73
1764814871.8687735,428301,1.1975,38.02,-14.09059879756793,0.4894845360824789,72
1764814871.970588,428401,1.1975,37.88,-14.09059879756793,0.3494845360824783,70
1764814872.0737164,428501,1.1975,38.12,-14.09059879756793,0.5894845360824732,70
1764814872.176068,428601,1.1975,38.02,-14.09059879756793,0.4894845360824789,70
1764814872.27885,428701,1.1975,38.07,-14.09059879756793,0.539484536082476,70
1764814872.3811002,428801,1.1975,38.02,-14.09059879756793,0.4894845360824789,70
1764814872.4844196,428901,1.1975,38.16,-14.09059879756793,0.6294845360824723,70
1764814872.586575,429001,1.1975,37.69,-14.09059879756793,0.15948453608247348,70
1764814872.690035,429101,1.1975,38.07,-14.09059879756793,0.539484536082476,70
1764814872.7924993,429201,1.2023,37.74,-13.746243786485119,0.20948453608247775,70
1764814872.8948264,429301,1.1975,37.93,-14.09059879756793,0.39948453608247547,70
1764814872.9975643,429401,1.1975,37.83,-14.09059879756793,0.29948453608247405,70
1764814873.1000445,429501,1.1926,37.93,-14.442127871381633,0.39948453608247547,70
1764814873.201857,429601,1.1975,37.97,-14.09059879756793,0.4394845360824746,70
1764814873.3044047,429701,1.1975,38.16,-14.09059879756793,0.6294845360824723,70
1764814873.4067574,429801,1.2023,37.79,-13.746243786485119,0.2594845360824749,70
