timestamp,ecg_raw,ecg_voltage,temperature,ecg_change_percent,temp_change_celsius,bpm
1764363625.0311756,9801,1.2366,28.99,-4.749224234688279,1.0317346938775493,70
1764363625.1340458,9901,1.2317,28.44,-5.126653315433887,0.4817346938775522,70
1764363625.2365592,10001,1.2317,28.95,-5.126653315433887,0.9917346938775502,70
1764363625.3379598,10101,1.2317,29.1,-5.126653315433887,1.1417346938775523,70
1764363625.4402704,10201,1.2317,28.59,-5.126653315433887,0.6317346938775508,70
1764363625.5423784,10301,1.2317,28.84,-5.126653315433887,0.8817346938775508,70
1764363625.6440597,10401,1.2317,29.17,-5.126653315433887,1.2117346938775526,70
1764363625.7460282,10501,1.2366,28.99,-4.749224234688279,1.0317346938775493,70
1764363625.8480437,10601,1.2317,28.04,-5.126653315433887,0.08173469387755006,70
1764363625.9518175,10701,1.2268,27.39,-5.504082396179512,-0.5682653061224485,70
1764363626.0612042,10801,1.2317,28.81,-5.126653315433887,0.8517346938775496,70
1764363626.1649482,10901,1.2366,29.06,-4.749224234688279,1.1017346938775496,70
1764363626.2689621,11001,1.2317,28.77,-5.126653315433887,0.8117346938775505,70
1764363626.371182,11101,1.2366,29.06,-4.749224234688279,1.1017346938775496,70
1764363626.4733293,11201,1.2317,29.1,-5.126653315433887,1.1417346938775523,70
1764363626.5755827,11301,1.2317,28.95,-5.126653315433887,0.9917346938775502,70
1764363626.677944,11401,1.2317,28.95,-5.126653315433887,0.9917346938775502,70
1764363626.7803638,11501,1.2317,28.7,-5.126653315433887,0.7417346938775502,70
1764363626.8828614,11601,1.2317,28.59,-5.126653315433887,0.6317346938775508,70
1764363626.9851952,11701,1.2268,28.33,-5.504082396179512,0.3717346938775492,70
1764363627.0877724,11801,1.2317,28.92,-5.126653315433887,0.9617346938775526,70
1764363627.189724,11901,1.2268,28.77,-5.504082396179512,0.8117346938775505,70
1764363627.2920067,12001,1.2268,28.04,-5.504082396179512,0.08173469387755006,70
1764363627.3946443,12101,1.2317,29.03,-5.126653315433887,1.071734693877552,70
1764363627.4966137,12201,1.2268,28.66,-5.504082396179512,0.701734693877551,70
1764363627.5996284,12301,1.2219,28.04,-5.8815114769251196,0.08173469387755006,70
1764363627.7017508,12401,1.2268,28.73,-5.504082396179512,0.7717346938775513,70
1764363627.8039021,12501,1.2268,28.88,-5.504082396179512,0.9217346938775499,70
1764363627.906163,12601,1.2268,28.77,-5.504082396179512,0.8117346938775505,70
1764363628.0083187,12701,1.2268,28.4,-5.504082396179512,0.4417346938775495,70
1764363628.1103337,12801,1.2268,28.62,-5.504082396179512,0.6617346938775519,70
1764363628.2122047,12901,1.2268,28.22,-5.504082396179512,0.2617346938775498,70
1764363628.314608,13001,1.2268,28.26,-5.504082396179512,0.3017346938775525,70
1764363628.4178424,13101,1.2268,28.48,-5.504082396179512,0.5217346938775513,70
1764363628.5195749,13201,1.2268,28.99,-5.504082396179512,1.0317346938775493,60
1764363628.6215096,13301,1.2268,28.7,-5.504082396179512,0.7417346938775502,60
1764363628.7238224,13401,1.2268,28.04,-5.504082396179512,0.08173469387755006,60
1764363628.825329,13501,1.2268,27.64,-5.504082396179512,-0.3182653061224485,60
1764363628.927521,13601,1.2317,28.88,-5.126653315433887,0.9217346938775499,60
1764363629.0294943,13701,1.2268,28.99,-5.504082396179512,1.0317346938775493,60
1764363629.1317105,13801,1.2268,28.99,-5.504082396179512,1.0317346938775493,60
1764363629.2336187,13901,1.2268,28.11,-5.504082396179512,0.15173469387755034,60
1764363629.3350115,14001,1.2317,27.54,-5.126653315433887,-0.41826530612244994,60
1764363629.4377873,14101,1.2317,28.33,-5.126653315433887,0.3717346938775492,60
1764363629.5404754,14201,1.2268,28.81,-5.504082396179512,0.8517346938775496,56
1764363629.642582,14301,1.2317,29.03,-5.126653315433887,1.071734693877552,53
1764363629.7454205,14401,1.2268,28.59,-5.504082396179512,0.6317346938775508,50
1764363629.8489153,14501,1.2268,28.26,-5.504082396179512,0.3017346938775525,46
1764363629.9512012,14601,1.2268,28.92,-5.504082396179512,0.9617346938775526,43
1764363630.0531278,14701,1.217,28.37,-6.258940557670726,0.4117346938775519,43
1764363630.1555166,14801,1.2268,28.73,-5.504082396179512,0.7717346938775513,43
1764363630.2580595,14901,1.2268,28.66,-5.504082396179512,0.701734693877551,43
1764363630.3603706,15001,1.2268,28.55,-5.504082396179512,0.5917346938775516,44
1764363630.4678683,15101,1.2317,29.03,-5.126653315433887,1.071734693877552,44
1764363630.5698202,15201,1.217,28.04,-6.258940557670726,0.08173469387755006,45
1764363630.672419,15301,1.2219,28.66,-5.8815114769251196,0.701734693877551,45
1764363630.7742808,15401,1.2268,27.68,-5.504082396179512,-0.2782653061224494,46
1764363630.876576,15501,1.2317,27.97,-5.126653315433887,0.011734693877549773,46
1764363630.978553,15601,1.2317,28.95,-5.126653315433887,0.9917346938775502,46
1764363631.0815527,15701,1.2317,27.82,-5.126653315433887,-0.1382653061224488,46
1764363631.1832883,15801,1.2317,28.04,-5.126653315433887,0.08173469387755006,48
1764363631.2848797,15901,1.2317,28.22,-5.126653315433887,0.2617346938775498,51
1764363631.3872542,16001,1.2268,28.59,-5.504082396179512,0.6317346938775508,54
1764363631.489718,16101,1.2268,28.95,-5.504082396179512,0.9917346938775502,57
1764363631.5919693,16201,1.2268,28.55,-5.504082396179512,0.5917346938775516,59
1764363631.6946542,16301,1.2317,28.0,-5.126653315433887,0.04173469387755091,59
1764363631.7967548,16401,1.2317,28.92,-5.126653315433887,0.9617346938775526,59
1764363631.8992927,16501,1.2268,29.06,-5.504082396179512,1.1017346938775496,59
1764363632.0013454,16601,1.2268,28.84,-5.504082396179512,0.8817346938775508,59
1764363632.1034188,16701,1.2268,27.54,-5.504082396179512,-0.41826530612244994,59
1764363632.205956,16801,1.2268,28.81,-5.504082396179512,0.8517346938775496,59
1764363632.3082533,16901,1.2317,28.66,-5.126653315433887,0.701734693877551,59
1764363632.4102216,17001,1.2268,28.44,-5.504082396179512,0.4817346938775522,59
1764363632.5123975,17101,1.2268,28.11,-5.504082396179512,0.15173469387755034,59
1764363632.6148105,17201,1.2317,27.9,-5.126653315433887,-0.05826530612245051,59
1764363632.7165744,17301,1.2268,28.51,-5.504082396179512,0.5517346938775525,61
1764363632.8183804,17401,1.2268,28.73,-5.504082396179512,0.7717346938775513,62
1764363632.9205918,17501,1.2268,28.62,-5.504082396179512,0.6617346938775519,63
1764363633.0228164,17601,1.2268,28.51,-5.504082396179512,0.5517346938775525,66
1764363633.1253588,17701,1.2268,28.04,-5.504082396179512,0.08173469387755006,68
1764363633.2272673,17801,1.2219,28.51,-5.8815114769251196,0.5517346938775525,69
1764363633.3307102,17901,1.2268,28.48,-5.504082396179512,0.5217346938775513,70
1764363633.432304,18001,1.2268,28.62,-5.504082396179512,0.6617346938775519,70
1764363633.5346675,18101,1.2268,28.84,-5.504082396179512,0.8817346938775508,69
1764363633.6366022,18201,1.2268,28.51,-5.504082396179512,0.5517346938775525,67
1764363633.7391005,18301,1.2219,27.75,-5.8815114769251196,-0.2082653061224491,66
1764363633.8413568,18401,1.2268,28.99,-5.504082396179512,1.0317346938775493,66
1764363633.9436655,18501,1.2268,28.48,-5.504082396179512,0.5217346938775513,66
1764363634.048948,18601,1.2268,28.44,-5.504082396179512,0.4817346938775522,66
1764363634.1506732,18701,1.2268,29.1,-5.504082396179512,1.1417346938775523,66
1764363634.252987,18801,1.2268,29.06,-5.504082396179512,1.1017346938775496,67
1764363634.3553376,18901,1.2219,28.04,-5.8815114769251196,0.08173469387755006,69
1764363634.4578066,19001,1.2268,29.06,-5.504082396179512,1.1017346938775496,70
1764363634.5598092,19101,1.2268,28.81,-5.504082396179512,0.8517346938775496,71
1764363634.6630821,19201,1.2219,28.33,-5.8815114769251196,0.3717346938775492,72
1764363634.764954,19301,1.2268,27.68,-5.504082396179512,-0.2782653061224494,72
1764363634.8673513,19401,1.2219,28.48,-5.8815114769251196,0.5217346938775513,72
1764363634.9692667,19501,1.2219,28.15,-5.8815114769251196,0.1917346938775495,72
1764363635.0717795,19601,1.2268,27.79,-5.504082396179512,-0.16826530612244994,72
1764363635.174185,19701,1.2268,29.17,-5.504082396179512,1.2117346938775526,72
1764363635.276791,19801,1.217,28.26,-6.258940557670726,0.3017346938775525,71
1764363635.3795474,19901,1.2268,27.57,-5.504082396179512,-0.3882653061224488,71
1764363635.4834797,20001,1.2268,28.55,-5.504082396179512,0.5917346938775516,70
1764363635.585771,20101,1.2268,28.88,-5.504082396179512,0.9217346938775499,70
1764363635.6882505,20201,1.2268,29.1,-5.504082396179512,1.1417346938775523,70
1764363635.790421,20301,1.2268,28.33,-5.504082396179512,0.3717346938775492,70
1764363635.892662,20401,1.2268,28.66,-5.504082396179512,0.701734693877551,69
1764363635.9958217,20501,1.2268,27.54,-5.504082396179512,-0.41826530612244994,68
1764363636.0978673,20601,1.2219,28.04,-5.8815114769251196,0.08173469387755006,68
1764363636.1998796,20701,1.2268,29.1,-5.504082396179512,1.1417346938775523,67
1764363636.3364418,20801,1.2317,28.95,-5.126653315433887,0.9917346938775502,67
1764363636.438105,20901,1.2219,28.0,-5.8815114769251196,0.04173469387755091,64
1764363636.5401719,21001,1.2268,28.19,-5.504082396179512,0.2317346938775522,60
1764363636.6419535,21101,1.2268,29.06,-5.504082396179512,1.1017346938775496,57
1764363636.745236,21201,1.2219,28.84,-5.8815114769251196,0.8817346938775508,53
1764363636.8474753,21301,1.2268,28.55,-5.504082396179512,0.5917346938775516,48
1764363636.94945,21401,1.2268,28.73,-5.504082396179512,0.7717346938775513,48
1764363637.0519476,21501,1.2268,29.03,-5.504082396179512,1.071734693877552,48
1764363637.1540217,21601,1.2268,28.55,-5.504082396179512,0.5917346938775516,48
1764363637.2561646,21701,1.2268,29.17,-5.504082396179512,1.2117346938775526,48
1764363637.3580139,21801,1.2268,28.62,-5.504082396179512,0.6617346938775519,48
1764363637.4610336,21901,1.2219,28.62,-5.8815114769251196,0.6617346938775519,48
1764363637.5631173,22001,1.2219,28.92,-5.8815114769251196,0.9617346938775526,48
1764363637.6651552,22101,1.217,28.04,-6.258940557670726,0.08173469387755006,48
1764363637.767272,22201,1.2219,28.7,-5.8815114769251196,0.7417346938775502,49
1764363637.8692007,22301,1.2219,28.04,-5.8815114769251196,0.08173469387755006,49
1764363637.9711058,22401,1.2219,28.29,-5.8815114769251196,0.33173469387755006,50
1764363638.0731869,22501,1.2219,28.81,-5.8815114769251196,0.8517346938775496,50
1764363638.177584,22601,1.2219,28.66,-5.8815114769251196,0.701734693877551,50
1764363638.2799704,22701,1.2268,28.81,-5.504082396179512,0.8517346938775496,50
1764363638.3819017,22801,1.2268,29.17,-5.504082396179512,1.2117346938775526,50
1764363638.4838097,22901,1.2268,28.73,-5.504082396179512,0.7717346938775513,50
1764363638.5856888,23001,1.2268,29.06,-5.504082396179512,1.1017346938775496,50
1764363638.6877208,23101,1.2219,28.66,-5.8815114769251196,0.701734693877551,50
1764363638.7902238,23201,1.2219,29.1,-5.8815114769251196,1.1417346938775523,50
1764363638.8932106,23301,1.2219,28.66,-5.8815114769251196,0.701734693877551,50
1764363638.9955838,23401,1.2268,28.81,-5.504082396179512,0.8517346938775496,50
1764363639.0974293,23501,1.2268,28.84,-5.504082396179512,0.8817346938775508,49
1764363639.1993124,23601,1.2268,28.22,-5.504082396179512,0.2617346938775498,48
1764363639.301831,23701,1.2268,28.37,-5.504082396179512,0.4117346938775519,47
1764363639.4044383,23801,1.2268,28.92,-5.504082396179512,0.9617346938775526,46
1764363639.509543,23901,1.2268,29.1,-5.504082396179512,1.1417346938775523,46
1764363639.612019,24001,1.2268,28.29,-5.504082396179512,0.33173469387755006,46
1764363639.7147398,24101,1.2219,28.73,-5.8815114769251196,0.7717346938775513,46
1764363639.8168604,24201,1.2219,28.7,-5.8815114769251196,0.7417346938775502,45
1764363639.919058,24301,1.2219,28.37,-5.8815114769251196,0.4117346938775519,44
1764363640.021583,24401,1.2268,28.88,-5.504082396179512,0.9217346938775499,43
1764363640.12399,24501,1.2219,29.14,-5.8815114769251196,1.1817346938775515,42
1764363640.2275279,24601,1.2317,28.73,-5.126653315433887,0.7717346938775513,42
1764363640.3295689,24701,1.2219,27.68,-5.8815114769251196,-0.2782653061224494,42
1764363640.4313262,24801,1.2219,28.37,-5.8815114769251196,0.4117346938775519,42
1764363640.5335577,24901,1.2219,28.29,-5.8815114769251196,0.33173469387755006,42
1764363640.6355395,25001,1.2219,27.79,-5.8815114769251196,-0.16826530612244994,42
1764363640.7381945,25101,1.2219,28.04,-5.8815114769251196,0.08173469387755006,42
1764363640.840123,25201,1.2219,28.44,-5.8815114769251196,0.4817346938775522,42
1764363640.9429288,25301,1.2219,28.59,-5.8815114769251196,0.6317346938775508,42
1764363641.0452387,25401,1.2219,28.04,-5.8815114769251196,0.08173469387755006,42
1764363641.1474426,25501,1.2219,29.17,-5.8815114769251196,1.2117346938775526,42
1764363641.2498798,25601,1.2219,28.92,-5.8815114769251196,0.9617346938775526,42
1764363641.3524966,25701,1.2219,29.17,-5.8815114769251196,1.2117346938775526,42
1764363641.4548044,25801,1.2219,29.06,-5.8815114769251196,1.1017346938775496,48
1764363641.5572534,25901,1.2219,28.55,-5.8815114769251196,0.5917346938775516,54
1764363641.6601186,26001,1.2219,28.44,-5.8815114769251196,0.4817346938775522,60
1764363641.7618582,26101,1.2219,29.06,-5.8815114769251196,1.1017346938775496,66
1764363641.8641932,26201,1.2219,28.77,-5.8815114769251196,0.8117346938775505,72
1764363641.966304,26301,1.2072,28.0,-7.01379871916196,0.04173469387755091,72
1764363642.0689232,26401,1.2219,27.68,-5.8815114769251196,-0.2782653061224494,72
1764363642.1709895,26501,1.2219,27.82,-5.8815114769251196,-0.1382653061224488,72
1764363642.2735906,26601,1.2219,28.37,-5.8815114769251196,0.4117346938775519,72
1764363642.3758497,26701,1.217,28.26,-6.258940557670726,0.3017346938775525,72
1764363642.4779918,26801,1.2317,28.88,-5.126653315433887,0.9217346938775499,72
1764363642.5802777,26901,1.2219,29.1,-5.8815114769251196,1.1417346938775523,70
1764363642.6824968,27001,1.217,28.48,-6.258940557670726,0.5217346938775513,68
1764363642.7851882,27101,1.217,28.88,-6.258940557670726,0.9217346938775499,66
1764363642.88731,27201,1.2121,28.08,-6.636369638416352,0.1217346938775492,64
1764363642.9915318,27301,1.2219,28.81,-5.8815114769251196,0.8517346938775496,61
1764363643.0936482,27401,1.217,28.22,-6.258940557670726,0.2617346938775498,61
1764363643.1961498,27501,1.2219,28.51,-5.8815114769251196,0.5517346938775525,61
1764363643.2988183,27601,1.2219,28.33,-5.8815114769251196,0.3717346938775492,61
1764363643.4007545,27701,1.2219,28.33,-5.8815114769251196,0.3717346938775492,61
1764363643.50376,27801,1.2219,27.79,-5.8815114769251196,-0.16826530612244994,61
1764363643.6056387,27901,1.2219,27.75,-5.8815114769251196,-0.2082653061224491,61
1764363643.7081625,28001,1.2219,28.88,-5.8815114769251196,0.9217346938775499,61
1764363643.8105786,28101,1.2121,28.22,-6.636369638416352,0.2617346938775498,61
1764363643.913316,28201,1.2219,28.73,-5.8815114769251196,0.7717346938775513,61
1764363644.0152462,28301,1.2219,28.44,-5.8815114769251196,0.4817346938775522,61
1764363644.1176052,28401,1.2219,28.95,-5.8815114769251196,0.9917346938775502,61
1764363644.2193606,28501,1.2219,29.1,-5.8815114769251196,1.1417346938775523,61
1764363644.32436,28601,1.2268,28.95,-5.504082396179512,0.9917346938775502,61
1764363644.4271846,28701,1.2219,28.04,-5.8815114769251196,0.08173469387755006,60
1764363644.5292542,28801,1.2219,29.1,-5.8815114769251196,1.1417346938775523,59
1764363644.6316426,28901,1.2219,28.62,-5.8815114769251196,0.6617346938775519,57
1764363644.7340744,29001,1.2219,27.68,-5.8815114769251196,-0.2782653061224494,56
1764363644.8362327,29101,1.2219,28.7,-5.8815114769251196,0.7417346938775502,54
1764363644.939173,29201,1.2268,29.03,-5.504082396179512,1.071734693877552,53
1764363645.0417132,29301,1.2219,28.92,-5.8815114769251196,0.9617346938775526,53
1764363645.143723,29401,1.2219,29.14,-5.8815114769251196,1.1817346938775515,54
1764363645.2462459,29501,1.2219,27.54,-5.8815114769251196,-0.41826530612244994,54
1764363645.348724,29601,1.2219,28.81,-5.8815114769251196,0.8517346938775496,54
1764363645.4513516,29701,1.2219,28.66,-5.8815114769251196,0.701734693877551,54
1764363645.5538101,29801,1.2219,28.66,-5.8815114769251196,0.701734693877551,53
1764363645.657062,29901,1.2268,29.14,-5.504082396179512,1.1817346938775515,52
1764363645.759354,30001,1.2219,27.93,-5.8815114769251196,-0.028265306122449374,51
1764363645.8615525,30101,1.2121,27.32,-6.636369638416352,-0.6382653061224488,51
1764363645.9633512,30201,1.2219,29.03,-5.8815114769251196,1.071734693877552,51
1764363646.065806,30301,1.2219,28.88,-5.8815114769251196,0.9217346938775499,52
1764363646.1681426,30401,1.217,28.84,-6.258940557670726,0.8817346938775508,52
1764363646.2702837,30501,1.2219,28.92,-5.8815114769251196,0.9617346938775526,52
1764363646.3728616,30601,1.217,28.33,-6.258940557670726,0.3717346938775492,52
1764363646.4750369,30701,1.217,28.84,-6.258940557670726,0.8817346938775508,52
1764363646.5768209,30801,1.217,28.77,-6.258940557670726,0.8117346938775505,51
1764363646.6794033,30901,1.217,28.51,-6.258940557670726,0.5517346938775525,51
1764363646.7813811,31001,1.217,28.92,-6.258940557670726,0.9617346938775526,50
1764363646.8835948,31101,1.217,27.79,-6.258940557670726,-0.16826530612244994,50
1764363646.98624,31201,1.2219,29.03,-5.8815114769251196,1.071734693877552,50
1764363647.0890167,31301,1.217,28.77,-6.258940557670726,0.8117346938775505,50
1764363647.1913135,31401,1.217,28.11,-6.258940557670726,0.15173469387755034,50
1764363647.2932346,31501,1.217,28.88,-6.258940557670726,0.9217346938775499,50
1764363647.3955522,31601,1.217,28.88,-6.258940557670726,0.9217346938775499,50
1764363647.5251875,31701,1.217,27.54,-6.258940557670726,-0.41826530612244994,50
1764363647.6279945,31801,1.217,28.15,-6.258940557670726,0.1917346938775495,50
1764363647.7298572,31901,1.217,28.84,-6.258940557670726,0.8817346938775508,50
1764363647.8323357,32001,1.2219,28.62,-5.8815114769251196,0.6617346938775519,50
1764363647.9347913,32101,1.2219,29.03,-5.8815114769251196,1.071734693877552,50
1764363648.0378444,32201,1.217,28.59,-6.258940557670726,0.6317346938775508,50
1764363648.1401715,32301,1.217,28.48,-6.258940557670726,0.5217346938775513,50
1764363648.2421405,32401,1.217,28.0,-6.258940557670726,0.04173469387755091,50
1764363648.3441477,32501,1.217,28.73,-6.258940557670726,0.7717346938775513,50
1764363648.446163,32601,1.2121,27.9,-6.636369638416352,-0.05826530612245051,50
1764363648.5484047,32701,1.217,27.82,-6.258940557670726,-0.1382653061224488,49
1764363648.6509125,32801,1.2219,28.73,-5.8815114769251196,0.7717346938775513,49
1764363648.7535293,32901,1.217,28.88,-6.258940557670726,0.9217346938775499,48
1764363648.8560376,33001,1.217,28.92,-6.258940557670726,0.9617346938775526,48
1764363648.9577627,33101,1.217,28.04,-6.258940557670726,0.08173469387755006,48
1764363649.0596635,33201,1.217,27.57,-6.258940557670726,-0.3882653061224488,48
1764363649.1616502,33301,1.217,28.95,-6.258940557670726,0.9917346938775502,47
1764363649.2638278,33401,1.2219,27.68,-5.8815114769251196,-0.2782653061224494,47
1764363649.3665428,33501,1.2219,28.73,-5.8815114769251196,0.7717346938775513,46
1764363649.470621,33601,1.217,28.51,-6.258940557670726,0.5517346938775525,45
1764363649.5734735,33701,1.2219,28.29,-5.8815114769251196,0.33173469387755006,45
1764363649.6757247,33801,1.217,28.77,-6.258940557670726,0.8117346938775505,45
1764363649.7777474,33901,1.217,27.64,-6.258940557670726,-0.3182653061224485,45
1764363649.8799505,34001,1.217,28.29,-6.258940557670726,0.33173469387755006,45
1764363649.9824586,34101,1.2219,29.03,-5.8815114769251196,1.071734693877552,45
1764363650.085787,34201,1.217,29.1,-6.258940557670726,1.1417346938775523,45
1764363650.1879485,34301,1.2219,27.93,-5.8815114769251196,-0.028265306122449374,45
1764363650.2903075,34401,1.217,28.29,-6.258940557670726,0.33173469387755006,49
1764363650.3923256,34501,1.217,28.77,-6.258940557670726,0.8117346938775505,56
1764363650.4947462,34601,1.217,28.88,-6.258940557670726,0.9217346938775499,63
1764363650.596808,34701,1.2219,28.99,-5.8815114769251196,1.0317346938775493,70
1764363650.6990411,34801,1.217,28.95,-6.258940557670726,0.9917346938775502,78
1764363650.800729,34901,1.2219,29.06,-5.8815114769251196,1.1017346938775496,81
1764363650.90412,35001,1.217,28.15,-6.258940557670726,0.1917346938775495,82
1764363651.0056434,35101,1.2219,29.03,-5.8815114769251196,1.071734693877552,82
1764363651.1077502,35201,1.217,28.88,-6.258940557670726,0.9217346938775499,83
1764363651.2103474,35301,1.217,27.79,-6.258940557670726,-0.16826530612244994,83
1764363651.31259,35401,1.217,28.92,-6.258940557670726,0.9617346938775526,83
1764363651.415277,35501,1.2072,28.55,-7.01379871916196,0.5917346938775516,83
1764363651.5180554,35601,1.2219,29.06,-5.8815114769251196,1.1017346938775496,83
1764363651.6205168,35701,1.2121,28.0,-6.636369638416352,0.04173469387755091,83
1764363651.7226217,35801,1.217,28.04,-6.258940557670726,0.08173469387755006,82
1764363651.825051,35901,1.217,27.64,-6.258940557670726,-0.3182653061224485,82
1764363651.927188,36001,1.2121,27.68,-6.636369638416352,-0.2782653061224494,82
1764363652.0289543,36101,1.217,28.4,-6.258940557670726,0.4417346938775495,81
1764363652.1308525,36201,1.2219,28.95,-5.8815114769251196,0.9917346938775502,81
1764363652.2329414,36301,1.2219,28.51,-5.8815114769251196,0.5517346938775525,81
1764363652.335585,36401,1.2219,29.14,-5.8815114769251196,1.1817346938775515,81
1764363652.4377167,36501,1.2219,28.4,-5.8815114769251196,0.4417346938775495,81
1764363652.5398562,36601,1.2219,28.37,-5.8815114769251196,0.4117346938775519,81
1764363652.6417606,36701,1.2219,28.51,-5.8815114769251196,0.5517346938775525,82
1764363652.7442286,36801,1.2121,27.97,-6.636369638416352,0.011734693877549773,80
1764363652.8467112,36901,1.2219,28.59,-5.8815114769251196,0.6317346938775508,79
1764363652.9555647,37001,1.217,28.84,-6.258940557670726,0.8817346938775508,77
1764363653.0580125,37101,1.2219,27.86,-5.8815114769251196,-0.09826530612244966,75
1764363653.159875,37201,1.217,28.84,-6.258940557670726,0.8817346938775508,75
1764363653.2615669,37301,1.2219,29.06,-5.8815114769251196,1.1017346938775496,77
1764363653.3640928,37401,1.2121,28.29,-6.636369638416352,0.33173469387755006,78
1764363653.4666696,37501,1.217,28.66,-6.258940557670726,0.701734693877551,80
1764363653.5693772,37601,1.2219,28.92,-5.8815114769251196,0.9617346938775526,82
1764363653.6714375,37701,1.217,28.51,-6.258940557670726,0.5517346938775525,82
1764363653.77358,37801,1.2219,29.1,-5.8815114769251196,1.1417346938775523,82
1764363653.8762283,37901,1.2219,28.51,-5.8815114769251196,0.5517346938775525,82
1764363653.9790099,38001,1.2268,29.03,-5.504082396179512,1.071734693877552,82
1764363654.0827825,38101,1.2219,28.26,-5.8815114769251196,0.3017346938775525,82
1764363654.185183,38201,1.2219,28.95,-5.8815114769251196,0.9917346938775502,82
1764363654.2873573,38301,1.2219,29.06,-5.8815114769251196,1.1017346938775496,82
1764363654.3891263,38401,1.217,28.95,-6.258940557670726,0.9917346938775502,82
1764363654.491773,38501,1.2219,29.1,-5.8815114769251196,1.1417346938775523,81
1764363654.5951264,38601,1.2219,27.97,-5.8815114769251196,0.011734693877549773,79
1764363654.6981578,38701,1.2219,28.51,-5.8815114769251196,0.5517346938775525,78
1764363654.80079,38801,1.2219,28.7,-5.8815114769251196,0.7417346938775502,76
1764363654.902987,38901,1.217,28.22,-6.258940557670726,0.2617346938775498,75
1764363655.0048363,39001,1.2219,29.03,-5.8815114769251196,1.071734693877552,75
1764363655.106618,39101,1.217,27.79,-6.258940557670726,-0.16826530612244994,77
1764363655.2089095,39201,1.2219,28.62,-5.8815114769251196,0.6617346938775519,78
1764363655.3114963,39301,1.217,29.17,-6.258940557670726,1.2117346938775526,79
1764363655.4141212,39401,1.217,28.0,-6.258940557670726,0.04173469387755091,80
1764363655.5171938,39501,1.217,28.7,-6.258940557670726,0.7417346938775502,80
1764363655.6223042,39601,1.217,28.88,-6.258940557670726,0.9217346938775499,79
1764363655.7252827,39701,1.2121,28.19,-6.636369638416352,0.2317346938775522,79
1764363655.827814,39801,1.217,28.0,-6.258940557670726,0.04173469387755091,79
1764363655.93002,39901,1.217,28.29,-6.258940557670726,0.33173469387755006,80
1764363656.0330746,40001,1.2121,28.44,-6.636369638416352,0.4817346938775522,81
1764363656.1353073,40101,1.2072,28.33,-7.01379871916196,0.3717346938775492,82
1764363656.2375677,40201,1.2121,28.33,-6.636369638416352,0.3717346938775492,82
1764363656.3398073,40301,1.2121,28.37,-6.636369638416352,0.4117346938775519,82
1764363656.4414897,40401,1.2121,28.29,-6.636369638416352,0.33173469387755006,82
1764363656.5441897,40501,1.2072,28.15,-7.01379871916196,0.1917346938775495,82
1764363656.6464617,40601,1.217,28.92,-6.258940557670726,0.9617346938775526,82
1764363656.7505095,40701,1.217,29.1,-6.258940557670726,1.1417346938775523,82
1764363656.8523047,40801,1.217,27.86,-6.258940557670726,-0.09826530612244966,82
1764363656.9543238,40901,1.217,28.81,-6.258940557670726,0.8517346938775496,82
1764363657.057301,41001,1.217,28.84,-6.258940557670726,0.8817346938775508,82
1764363657.159439,41101,1.2219,27.93,-5.8815114769251196,-0.028265306122449374,81
1764363657.2618883,41201,1.217,28.29,-6.258940557670726,0.33173469387755006,78
1764363657.3651981,41301,1.217,28.95,-6.258940557670726,0.9917346938775502,74
1764363657.4675765,41401,1.217,28.44,-6.258940557670726,0.4817346938775522,71
1764363657.5696754,41501,1.217,28.62,-6.258940557670726,0.6617346938775519,68
1764363657.6717906,41601,1.217,27.64,-6.258940557670726,-0.3182653061224485,65
1764363657.7743227,41701,1.2219,28.95,-5.8815114769251196,0.9917346938775502,65
1764363657.8765817,41801,1.2219,28.95,-5.8815114769251196,0.9917346938775502,65
1764363657.9785185,41901,1.217,28.88,-6.258940557670726,0.9217346938775499,67
1764363658.0813687,42001,1.217,29.1,-6.258940557670726,1.1417346938775523,69
1764363658.18389,42101,1.217,28.62,-6.258940557670726,0.6617346938775519,70
1764363658.2858734,42201,1.217,28.04,-6.258940557670726,0.08173469387755006,72
1764363658.3879714,42301,1.217,29.06,-6.258940557670726,1.1017346938775496,74
1764363658.4904087,42401,1.217,28.84,-6.258940557670726,0.8817346938775508,74
1764363658.5926433,42501,1.217,27.79,-6.258940557670726,-0.16826530612244994,74
1764363658.6947043,42601,1.217,28.15,-6.258940557670726,0.1917346938775495,74
1764363658.7969532,42701,1.2121,28.11,-6.636369638416352,0.15173469387755034,74
1764363658.8992014,42801,1.217,28.4,-6.258940557670726,0.4417346938775495,74
1764363659.0014534,110601,1.2023,28.92,-7.391227799907584,0.9617346938775526,74
1764363659.103134,110701,1.2023,27.82,-7.391227799907584,-0.1382653061224488,74
1764363659.2050133,110801,1.2072,28.44,-7.01379871916196,0.4817346938775522,75
1764363659.3070264,110901,1.2023,28.04,-7.391227799907584,0.08173469387755006,75
1764363659.5100565,110601,1.2023,28.92,-7.391227799907584,0.9617346938775526,75
1764363659.613251,110701,1.2023,27.82,-7.391227799907584,-0.1382653061224488,75
1764363659.715765,110801,1.2072,28.44,-7.01379871916196,0.4817346938775522,75
1764363659.8183203,110901,1.2023,28.04,-7.391227799907584,0.08173469387755006,72
1764363659.9204974,111001,1.2023,28.59,-7.391227799907584,0.6317346938775508,70
1764363660.0225904,111101,1.2023,27.86,-7.391227799907584,-0.09826530612244966,68
1764363660.12503,111201,1.2023,28.04,-7.391227799907584,0.08173469387755006,66
1764363660.2274847,111301,1.2023,28.99,-7.391227799907584,1.0317346938775493,66
1764363660.3304403,111401,1.2072,29.06,-7.01379871916196,1.1017346938775496,68
1764363660.4327528,111501,1.2023,28.73,-7.391227799907584,0.7717346938775513,69
1764363660.534476,111601,1.1926,28.04,-8.13838332709787,0.08173469387755006,70
1764363660.636493,111701,1.2023,27.97,-7.391227799907584,0.011734693877549773,71
1764363660.7391143,111801,1.2023,27.93,-7.391227799907584,-0.028265306122449374,71
1764363660.8409884,111901,1.2072,29.06,-7.01379871916196,1.1017346938775496,70
1764363660.9429195,112001,1.1975,28.11,-7.760954246352261,0.15173469387755034,70
1764363661.0461957,112101,1.2023,28.26,-7.391227799907584,0.3017346938775525,70
1764363661.1489778,112201,1.2072,28.95,-7.01379871916196,0.9917346938775502,69
1764363661.2511265,112301,1.2072,28.73,-7.01379871916196,0.7717346938775513,69
1764363661.353229,112401,1.2072,29.17,-7.01379871916196,1.2117346938775526,69
1764363661.4557092,112501,1.2023,28.88,-7.391227799907584,0.9217346938775499,68
1764363661.5582192,112601,1.2072,29.06,-7.01379871916196,1.1017346938775496,68
1764363661.6613364,112701,1.2023,28.81,-7.391227799907584,0.8517346938775496,68
1764363661.7640245,112801,1.2072,28.95,-7.01379871916196,0.9917346938775502,68
1764363661.866242,112901,1.2072,28.59,-7.01379871916196,0.6317346938775508,68
1764363661.9688945,113001,1.2023,28.66,-7.391227799907584,0.701734693877551,68
1764363662.0713758,113101,1.2072,28.55,-7.01379871916196,0.5917346938775516,68
1764363662.1732063,113201,1.2072,29.17,-7.01379871916196,1.2117346938775526,67
1764363662.275497,113301,1.2121,28.95,-6.636369638416352,0.9917346938775502,67
1764363662.3779519,113401,1.2072,27.68,-7.01379871916196,-0.2782653061224494,67
1764363662.480143,113501,1.2072,28.95,-7.01379871916196,0.9917346938775502,68
1764363662.5823667,113601,1.2072,28.55,-7.01379871916196,0.5917346938775516,69
1764363662.6841333,113701,1.2072,29.1,-7.01379871916196,1.1417346938775523,71
1764363662.7858558,113801,1.2072,28.88,-7.01379871916196,0.9217346938775499,73
1764363662.8887472,113901,1.2072,28.66,-7.01379871916196,0.701734693877551,74
1764363662.9912145,114001,1.2023,28.04,-7.391227799907584,0.08173469387755006,76
1764363663.094424,114101,1.2072,28.95,-7.01379871916196,0.9917346938775502,76
1764363663.1969306,114201,1.2072,28.88,-7.01379871916196,0.9217346938775499,76
1764363663.2997866,114301,1.2072,29.1,-7.01379871916196,1.1417346938775523,74
1764363663.4021811,114401,1.2072,28.4,-7.01379871916196,0.4417346938775495,71
1764363663.5041459,114501,1.2072,28.55,-7.01379871916196,0.5917346938775516,71
1764363663.605717,114601,1.2072,28.7,-7.01379871916196,0.7417346938775502,71
1764363663.7076738,114701,1.2023,28.26,-7.391227799907584,0.3017346938775525,71
1764363663.8106627,114801,1.2072,29.03,-7.01379871916196,1.071734693877552,73
1764363663.913176,114901,1.2023,28.0,-7.391227799907584,0.04173469387755091,74
1764363664.0154257,115001,1.2023,29.03,-7.391227799907584,1.071734693877552,74
1764363664.117487,115101,1.2023,28.7,-7.391227799907584,0.7417346938775502,74
1764363664.2199025,115201,1.2023,28.88,-7.391227799907584,0.9217346938775499,74
1764363664.322797,115301,1.2121,28.99,-6.636369638416352,1.0317346938775493,73
1764363664.4251251,115401,1.2072,28.66,-7.01379871916196,0.701734693877551,72
1764363664.529391,115501,1.2072,27.61,-7.01379871916196,-0.34826530612244966,72
1764363664.631186,115601,1.2023,28.04,-7.391227799907584,0.08173469387755006,71
1764363664.733159,115701,1.2023,28.33,-7.391227799907584,0.3717346938775492,69
1764363664.835633,115801,1.2023,28.7,-7.391227799907584,0.7417346938775502,68
1764363664.9377608,115901,1.2023,27.68,-7.391227799907584,-0.2782653061224494,66
1764363665.0397904,116001,1.1975,27.97,-7.760954246352261,0.011734693877549773,64
1764363665.1419728,116101,1.2072,27.54,-7.01379871916196,-0.41826530612244994,63
1764363665.2450483,116201,1.2023,28.0,-7.391227799907584,0.04173469387755091,63
1764363665.3476586,116301,1.2072,28.55,-7.01379871916196,0.5917346938775516,64
1764363665.4499178,116401,1.1975,28.26,-7.760954246352261,0.3017346938775525,63
1764363665.5519845,116501,1.2072,29.06,-7.01379871916196,1.1017346938775496,63
1764363665.6550186,116601,1.2072,28.66,-7.01379871916196,0.701734693877551,63
1764363665.757459,116701,1.2072,29.14,-7.01379871916196,1.1817346938775515,63
1764363665.8602214,116801,1.2072,28.59,-7.01379871916196,0.6317346938775508,63
1764363665.9647117,116901,1.2072,28.66,-7.01379871916196,0.701734693877551,63
1764363666.0680547,117001,1.1975,28.19,-7.760954246352261,0.2317346938775522,63
1764363666.1704924,117101,1.2023,27.93,-7.391227799907584,-0.028265306122449374,63
1764363666.2729268,117201,1.2072,28.88,-7.01379871916196,0.9217346938775499,63
1764363666.3753095,117301,1.2072,29.1,-7.01379871916196,1.1417346938775523,63
1764363666.4777565,117401,1.2072,28.84,-7.01379871916196,0.8817346938775508,63
1764363666.5802681,117501,1.2072,28.19,-7.01379871916196,0.2317346938775522,63
1764363666.6825264,117601,1.2072,28.51,-7.01379871916196,0.5517346938775525,63
1764363666.7849445,117701,1.2072,28.37,-7.01379871916196,0.4117346938775519,63
1764363666.8871431,117801,1.2072,28.73,-7.01379871916196,0.7717346938775513,63
1764363666.9892032,117901,1.2072,28.77,-7.01379871916196,0.8117346938775505,63
1764363667.0913744,118001,1.2023,28.33,-7.391227799907584,0.3717346938775492,63
1764363667.1937423,118101,1.2023,27.97,-7.391227799907584,0.011734693877549773,63
1764363667.2956185,118201,1.2072,28.84,-7.01379871916196,0.8817346938775508,63
1764363667.3977711,118301,1.2072,28.95,-7.01379871916196,0.9917346938775502,63
1764363667.5001678,118401,1.2072,29.1,-7.01379871916196,1.1417346938775523,63
1764363667.6020708,118501,1.2072,28.29,-7.01379871916196,0.33173469387755006,63
1764363667.7048411,118601,1.2072,28.33,-7.01379871916196,0.3717346938775492,63
1764363667.8072634,118701,1.1975,28.19,-7.760954246352261,0.2317346938775522,63
1764363667.909983,118801,1.2023,28.88,-7.391227799907584,0.9217346938775499,63
1764363668.0120652,118901,1.2023,28.44,-7.391227799907584,0.4817346938775522,63
1764363668.1145031,119001,1.2023,28.95,-7.391227799907584,0.9917346938775502,63
1764363668.2167547,119101,1.2121,29.03,-6.636369638416352,1.071734693877552,63
1764363668.3183942,119201,1.2023,28.66,-7.391227799907584,0.701734693877551,63
1764363668.4201705,119301,1.2072,27.54,-7.01379871916196,-0.41826530612244994,63
1764363668.521621,119401,1.2072,28.51,-7.01379871916196,0.5517346938775525,63
1764363668.6237814,119501,1.2072,29.1,-7.01379871916196,1.1417346938775523,63
1764363668.7266507,119601,1.2072,28.95,-7.01379871916196,0.9917346938775502,63
1764363668.8281837,119701,1.2072,27.64,-7.01379871916196,-0.3182653061224485,63
1764363668.929774,119801,1.2072,28.59,-7.01379871916196,0.6317346938775508,65
1764363669.031935,119901,1.2072,28.88,-7.01379871916196,0.9217346938775499,68
1764363669.1338992,120001,1.2023,28.51,-7.391227799907584,0.5517346938775525,69
1764363669.2361107,120101,1.1975,28.15,-7.760954246352261,0.1917346938775495,70
1764363669.3384476,120201,1.1975,28.04,-7.760954246352261,0.08173469387755006,72
1764363669.4419053,120301,1.2023,28.88,-7.391227799907584,0.9217346938775499,72
1764363669.5440688,120401,1.1926,28.29,-8.13838332709787,0.33173469387755006,72
1764363669.6461213,120501,1.2023,29.06,-7.391227799907584,1.1017346938775496,72
1764363669.7485018,120601,1.2072,28.99,-7.01379871916196,1.0317346938775493,72
1764363669.8512282,120701,1.2072,29.03,-7.01379871916196,1.071734693877552,72
1764363669.9532769,120801,1.2023,28.62,-7.391227799907584,0.6617346938775519,72
1764363670.0556777,120901,1.2023,28.44,-7.391227799907584,0.4817346938775522,71
1764363670.1590002,121001,1.2023,28.04,-7.391227799907584,0.08173469387755006,70
1764363670.2612789,121101,1.2023,28.55,-7.391227799907584,0.5917346938775516,70
1764363670.3633146,121201,1.1975,28.19,-7.760954246352261,0.2317346938775522,68
1764363670.4656155,121301,1.2023,28.73,-7.391227799907584,0.7717346938775513,68
1764363670.5677865,121401,1.2023,29.06,-7.391227799907584,1.1017346938775496,68
1764363670.6699107,121501,1.2023,28.88,-7.391227799907584,0.9217346938775499,68
1764363670.772033,121601,1.2023,28.73,-7.391227799907584,0.7717346938775513,68
1764363670.8748434,121701,1.2023,29.1,-7.391227799907584,1.1417346938775523,68
1764363670.977099,121801,1.2023,28.7,-7.391227799907584,0.7417346938775502,67
1764363671.0802677,121901,1.2023,28.04,-7.391227799907584,0.08173469387755006,65
1764363671.1826978,122001,1.2023,28.33,-7.391227799907584,0.3717346938775492,63
1764363671.2852793,122101,1.2023,28.99,-7.391227799907584,1.0317346938775493,63
1764363671.3885622,122201,1.1975,28.29,-7.760954246352261,0.33173469387755006,63
1764363671.4922237,122301,1.2023,29.1,-7.391227799907584,1.1417346938775523,64
1764363671.5949452,122401,1.2023,28.55,-7.391227799907584,0.5917346938775516,66
1764363671.6975467,122501,1.2023,28.37,-7.391227799907584,0.4117346938775519,65
1764363671.7997737,122601,1.2072,29.17,-7.01379871916196,1.2117346938775526,63
1764363671.902118,122701,1.2023,28.7,-7.391227799907584,0.7417346938775502,61
1764363672.0042083,122801,1.2072,29.14,-7.01379871916196,1.1817346938775515,59
1764363672.1066334,122901,1.2023,27.82,-7.391227799907584,-0.1382653061224488,57
1764363672.2082832,123001,1.1975,28.95,-7.760954246352261,0.9917346938775502,57
1764363672.3099306,123101,1.2072,28.88,-7.01379871916196,0.9217346938775499,58
1764363672.4119227,123201,1.1975,28.22,-7.760954246352261,0.2617346938775498,57
1764363672.5149252,123301,1.2023,28.7,-7.391227799907584,0.7417346938775502,57
1764363672.6183355,123401,1.2023,28.81,-7.391227799907584,0.8517346938775496,57
1764363672.720928,123501,1.2023,28.33,-7.391227799907584,0.3717346938775492,56
1764363672.8251448,123601,1.2023,28.73,-7.391227799907584,0.7717346938775513,56
1764363672.9274995,123701,1.1975,28.55,-7.760954246352261,0.5917346938775516,56
1764363673.0296965,123801,1.1926,28.11,-8.13838332709787,0.15173469387755034,56
1764363673.1320324,123901,1.2023,28.88,-7.391227799907584,0.9217346938775499,56
1764363673.2344775,124001,1.2023,27.82,-7.391227799907584,-0.1382653061224488,56
1764363673.3373723,124101,1.2072,27.54,-7.01379871916196,-0.41826530612244994,56
1764363673.440178,124201,1.2072,27.68,-7.01379871916196,-0.2782653061224494,57
1764363673.542514,124301,1.2023,28.04,-7.391227799907584,0.08173469387755006,56
1764363673.6449115,124401,1.2072,29.17,-7.01379871916196,1.2117346938775526,56
1764363673.7492216,124501,1.2023,28.73,-7.391227799907584,0.7717346938775513,55
1764363673.8510964,124601,1.2023,29.03,-7.391227799907584,1.071734693877552,54
1764363673.9540064,124701,1.2023,28.55,-7.391227799907584,0.5917346938775516,53
1764363674.0567296,124801,1.2023,29.06,-7.391227799907584,1.1017346938775496,53
1764363674.1590333,124901,1.2023,28.62,-7.391227799907584,0.6617346938775519,52
1764363674.261604,125001,1.2023,28.48,-7.391227799907584,0.5217346938775513,52
1764363674.3640969,125101,1.2023,28.84,-7.391227799907584,0.8817346938775508,52
1764363674.4665725,125201,1.2023,28.7,-7.391227799907584,0.7417346938775502,52
1764363674.5687497,125301,1.2072,28.62,-7.01379871916196,0.6617346938775519,52
1764363674.6729043,125401,1.2023,28.04,-7.391227799907584,0.08173469387755006,52
1764363674.7748783,125501,1.1975,27.9,-7.760954246352261,-0.05826530612245051,52
1764363674.876706,125601,1.2023,29.1,-7.391227799907584,1.1417346938775523,52
1764363674.9785209,125701,1.2023,28.66,-7.391227799907584,0.701734693877551,52
1764363675.0804818,125801,1.2072,28.73,-7.01379871916196,0.7717346938775513,52
1764363675.1830864,125901,1.2072,28.92,-7.01379871916196,0.9617346938775526,52
1764363675.2853608,126001,1.2072,29.1,-7.01379871916196,1.1417346938775523,51
1764363675.3902864,126101,1.2023,27.97,-7.391227799907584,0.011734693877549773,51
1764363675.4924603,126201,1.2072,28.7,-7.01379871916196,0.7417346938775502,51
1764363675.5951412,126301,1.2072,28.62,-7.01379871916196,0.6617346938775519,51
1764363675.6975832,126401,1.1975,28.4,-7.760954246352261,0.4417346938775495,51
1764363675.799945,126501,1.2072,28.48,-7.01379871916196,0.5217346938775513,51
1764363675.9021618,126601,1.2072,29.1,-7.01379871916196,1.1417346938775523,50
1764363676.0052233,126701,1.2072,27.61,-7.01379871916196,-0.34826530612244966,50
1764363676.1081047,126801,1.2121,29.03,-6.636369638416352,1.071734693877552,50
1764363676.2106166,126901,1.2072,29.17,-7.01379871916196,1.2117346938775526,50
1764363676.3128479,127001,1.2023,28.55,-7.391227799907584,0.5917346938775516,50
1764363676.4154189,127101,1.2072,28.59,-7.01379871916196,0.6317346938775508,50
1764363676.5179987,127201,1.2023,28.7,-7.391227799907584,0.7417346938775502,50
1764363676.6211588,127301,1.1975,28.15,-7.760954246352261,0.1917346938775495,50
1764363676.723199,127401,1.2023,29.1,-7.391227799907584,1.1417346938775523,50
1764363676.8252041,127501,1.2121,29.1,-6.636369638416352,1.1417346938775523,50
1764363676.9276528,127601,1.2023,28.33,-7.391227799907584,0.3717346938775492,50
1764363677.029882,127701,1.2023,28.66,-7.391227799907584,0.701734693877551,51
1764363677.1321115,127801,1.2072,28.88,-7.01379871916196,0.9217346938775499,51
1764363677.2343042,127901,1.1975,28.33,-7.760954246352261,0.3717346938775492,52
1764363677.3378425,128001,1.2023,28.48,-7.391227799907584,0.5217346938775513,52
1764363677.4400766,128101,1.2121,29.03,-6.636369638416352,1.071734693877552,52
1764363677.541879,128201,1.2023,28.4,-7.391227799907584,0.4417346938775495,52
1764363677.643989,128301,1.2023,28.62,-7.391227799907584,0.6617346938775519,52
1764363677.746478,128401,1.2023,28.44,-7.391227799907584,0.4817346938775522,52
1764363677.8484282,128501,1.2072,28.44,-7.01379871916196,0.4817346938775522,52
1764363677.950792,128601,1.2023,29.14,-7.391227799907584,1.1817346938775515,53
1764363678.0536423,128701,1.1975,28.04,-7.760954246352261,0.08173469387755006,53
1764363678.1564443,128801,1.2023,27.97,-7.391227799907584,0.011734693877549773,53
1764363678.2588334,128901,1.2072,29.03,-7.01379871916196,1.071734693877552,53
1764363678.3612337,129001,1.2023,28.92,-7.391227799907584,0.9617346938775526,54
1764363678.463447,129101,1.2023,28.29,-7.391227799907584,0.33173469387755006,55
1764363678.5659878,129201,1.2023,28.26,-7.391227799907584,0.3017346938775525,56
1764363678.6695225,129301,1.2023,28.29,-7.391227799907584,0.33173469387755006,57
1764363678.772431,129401,1.2023,27.97,-7.391227799907584,0.011734693877549773,57
1764363678.874937,129501,1.2072,27.93,-7.01379871916196,-0.028265306122449374,57
1764363678.9770215,129601,1.2072,28.92,-7.01379871916196,0.9617346938775526,57
1764363679.0790603,129701,1.2072,28.66,-7.01379871916196,0.701734693877551,57
1764363679.1817915,129801,1.2072,28.33,-7.01379871916196,0.3717346938775492,57
1764363679.2842305,129901,1.2072,28.33,-7.01379871916196,0.3717346938775492,57
1764363679.3868043,130001,1.2023,28.59,-7.391227799907584,0.6317346938775508,58
1764363679.4886446,130101,1.2023,28.88,-7.391227799907584,0.9217346938775499,58
1764363679.5908387,130201,1.2023,27.61,-7.391227799907584,-0.34826530612244966,58
1764363679.6929083,130301,1.1975,28.33,-7.760954246352261,0.3717346938775492,59
1764363679.7970834,130401,1.2023,28.26,-7.391227799907584,0.3017346938775525,59
1764363679.899108,130501,1.2072,28.73,-7.01379871916196,0.7717346938775513,62
1764363680.0025826,130601,1.2023,28.48,-7.391227799907584,0.5217346938775513,64
1764363680.1049974,130701,1.2023,28.7,-7.391227799907584,0.7417346938775502,67
1764363680.207068,130801,1.2072,28.73,-7.01379871916196,0.7717346938775513,70
1764363680.3093646,130901,1.2023,28.81,-7.391227799907584,0.8517346938775496,72
1764363680.4120867,131001,1.2072,28.77,-7.01379871916196,0.8117346938775505,71
1764363680.514269,131101,1.2023,28.81,-7.391227799907584,0.8517346938775496,71
1764363680.6173356,131201,1.2072,28.29,-7.01379871916196,0.33173469387755006,71
1764363680.719578,131301,1.1975,28.04,-7.760954246352261,0.08173469387755006,72
1764363680.8217893,131401,1.1975,28.29,-7.760954246352261,0.33173469387755006,72
1764363680.923819,131501,1.2023,28.33,-7.391227799907584,0.3717346938775492,73
1764363681.0267284,131601,1.2023,29.06,-7.391227799907584,1.1017346938775496,73
1764363681.128989,131701,1.2023,28.81,-7.391227799907584,0.8517346938775496,74
1764363681.231516,131801,1.2023,28.48,-7.391227799907584,0.5217346938775513,74
1764363681.3351269,131901,1.2023,28.81,-7.391227799907584,0.8517346938775496,74
1764363681.4375546,132001,1.2072,27.57,-7.01379871916196,-0.3882653061224488,74
1764363681.5399115,132101,1.2072,28.95,-7.01379871916196,0.9917346938775502,74
1764363681.6422997,132201,1.2023,28.15,-7.391227799907584,0.1917346938775495,74
1764363681.7447689,132301,1.2023,29.03,-7.391227799907584,1.071734693877552,74
1764363681.8470984,132401,1.2023,28.77,-7.391227799907584,0.8117346938775505,74
1764363681.950376,132501,1.2023,28.04,-7.391227799907584,0.08173469387755006,72
1764363682.0539806,132601,1.2023,27.68,-7.391227799907584,-0.2782653061224494,71
1764363682.1564672,132701,1.2072,28.62,-7.01379871916196,0.6617346938775519,70
1764363682.2597451,132801,1.2023,28.59,-7.391227799907584,0.6317346938775508,69
1764363682.3625016,132901,1.2121,29.17,-6.636369638416352,1.2117346938775526,67
1764363682.4646478,133001,1.1975,28.15,-7.760954246352261,0.1917346938775495,69
1764363682.5671349,133101,1.2023,28.48,-7.391227799907584,0.5217346938775513,72
1764363682.6699016,133201,1.2023,28.19,-7.391227799907584,0.2317346938775522,74
1764363682.7719622,133301,1.2023,27.93,-7.391227799907584,-0.028265306122449374,75
1764363682.8746147,133401,1.2072,28.88,-7.01379871916196,0.9217346938775499,77
1764363682.9767094,133501,1.2023,28.88,-7.391227799907584,0.9217346938775499,77
1764363683.0787075,133601,1.2023,28.99,-7.391227799907584,1.0317346938775493,77
1764363683.181002,133701,1.1975,28.11,-7.760954246352261,0.15173469387755034,77
1764363683.2837777,133801,1.2072,28.88,-7.01379871916196,0.9217346938775499,77
1764363683.386469,133901,1.2072,29.06,-7.01379871916196,1.1017346938775496,77
1764363683.488687,134001,1.2023,27.97,-7.391227799907584,0.011734693877549773,77
1764363683.59062,134101,1.2072,29.1,-7.01379871916196,1.1417346938775523,77
1764363683.6931505,134201,1.2072,28.95,-7.01379871916196,0.9917346938775502,77
1764363683.795946,134301,1.2072,28.48,-7.01379871916196,0.5217346938775513,77
1764363683.9008563,134401,1.2023,28.95,-7.391227799907584,0.9917346938775502,76
1764363684.00327,134501,1.2072,28.51,-7.01379871916196,0.5517346938775525,75
1764363684.1052556,134601,1.2072,28.73,-7.01379871916196,0.7717346938775513,75
1764363684.2070189,134701,1.2072,28.4,-7.01379871916196,0.4417346938775495,74
1764363684.3101091,134801,1.2072,28.99,-7.01379871916196,1.0317346938775493,74
1764363684.4122384,134901,1.2072,28.73,-7.01379871916196,0.7717346938775513,74
1764363684.5165062,135001,1.2023,28.7,-7.391227799907584,0.7417346938775502,74
1764363684.6200848,135101,1.2023,27.93,-7.391227799907584,-0.028265306122449374,74
1764363684.7227747,135201,1.2072,29.03,-7.01379871916196,1.071734693877552,73
1764363684.824911,135301,1.2023,28.81,-7.391227799907584,0.8517346938775496,72
1764363684.9271069,135401,1.2023,27.97,-7.391227799907584,0.011734693877549773,72
1764363685.0299745,135501,1.2072,28.04,-7.01379871916196,0.08173469387755006,71
1764363685.1338038,135601,1.2023,28.81,-7.391227799907584,0.8517346938775496,70
1764363685.2357647,135701,1.2072,28.66,-7.01379871916196,0.701734693877551,70
1764363685.337984,135801,1.2072,28.95,-7.01379871916196,0.9917346938775502,70
1764363685.4408193,135901,1.2072,28.95,-7.01379871916196,0.9917346938775502,70
1764363685.5428193,136001,1.2072,29.17,-7.01379871916196,1.2117346938775526,70
1764363685.6450953,136101,1.2072,29.14,-7.01379871916196,1.1817346938775515,71
1764363685.7518342,136201,1.2072,29.1,-7.01379871916196,1.1417346938775523,72
1764363685.8536932,136301,1.2072,29.1,-7.01379871916196,1.1417346938775523,73
1764363685.9555607,136401,1.2072,28.55,-7.01379871916196,0.5917346938775516,74
1764363686.058012,136501,1.2072,28.81,-7.01379871916196,0.8517346938775496,75
1764363686.1602173,136601,1.2072,28.73,-7.01379871916196,0.7717346938775513,75
1764363686.2631702,136701,1.2023,27.93,-7.391227799907584,-0.028265306122449374,74
1764363686.3660645,136801,1.2072,28.37,-7.01379871916196,0.4117346938775519,73
1764363686.4681199,136901,1.2072,28.77,-7.01379871916196,0.8117346938775505,72
1764363686.5698118,137001,1.2072,28.22,-7.01379871916196,0.2617346938775498,70
1764363686.6723187,137101,1.2023,28.4,-7.391227799907584,0.4417346938775495,69
1764363686.774734,137201,1.2072,29.1,-7.01379871916196,1.1417346938775523,69
1764363686.8773444,137301,1.2072,29.14,-7.01379871916196,1.1817346938775515,70
1764363686.981058,137401,1.2072,27.68,-7.01379871916196,-0.2782653061224494,69
1764363687.083996,137501,1.2072,28.7,-7.01379871916196,0.7417346938775502,69
1764363687.1867352,137601,1.2121,29.06,-6.636369638416352,1.1017346938775496,68
1764363687.28899,137701,1.2072,28.95,-7.01379871916196,0.9917346938775502,68
1764363687.390912,137801,1.2072,28.7,-7.01379871916196,0.7417346938775502,68
1764363687.4933903,137901,1.2072,28.62,-7.01379871916196,0.6617346938775519,68
1764363687.5960898,138001,1.2023,27.68,-7.391227799907584,-0.2782653061224494,70
1764363687.6988373,138101,1.2072,28.15,-7.01379871916196,0.1917346938775495,72
1764363687.8009932,138201,1.1975,27.9,-7.760954246352261,-0.05826530612245051,73
1764363687.9031358,138301,1.2023,28.95,-7.391227799907584,0.9917346938775502,74
1764363688.0056012,138401,1.2023,28.48,-7.391227799907584,0.5217346938775513,74
1764363688.1083088,138501,1.2072,28.99,-7.01379871916196,1.0317346938775493,73
1764363688.2115548,138601,1.2023,28.22,-7.391227799907584,0.2617346938775498,71
1764363688.314938,138701,1.2072,28.19,-7.01379871916196,0.2317346938775522,70
1764363688.4169536,138801,1.2072,27.61,-7.01379871916196,-0.34826530612244966,70
1764363688.5189526,138901,1.2023,28.66,-7.391227799907584,0.701734693877551,71
1764363688.6214297,139001,1.2072,28.44,-7.01379871916196,0.4817346938775522,72
1764363688.7240264,139101,1.2023,27.93,-7.391227799907584,-0.028265306122449374,72
1764363688.8267913,139201,1.2023,28.51,-7.391227799907584,0.5517346938775525,73
1764363688.9303396,139301,1.2072,29.03,-7.01379871916196,1.071734693877552,72
1764363689.032736,139401,1.2072,28.37,-7.01379871916196,0.4117346938775519,70
1764363689.1347704,139501,1.2072,29.17,-7.01379871916196,1.2117346938775526,67
1764363689.23734,139601,1.2023,28.73,-7.391227799907584,0.7717346938775513,67
1764363689.3393393,139701,1.2023,28.7,-7.391227799907584,0.7417346938775502,66
1764363689.4417229,139801,1.2023,28.04,-7.391227799907584,0.08173469387755006,65
1764363689.5441437,139901,1.2072,29.17,-7.01379871916196,1.2117346938775526,66
1764363689.6472826,140001,1.2023,29.03,-7.391227799907584,1.071734693877552,66
1764363689.7497013,140101,1.2072,29.1,-7.01379871916196,1.1417346938775523,65
1764363689.8521633,140201,1.2121,28.99,-6.636369638416352,1.0317346938775493,65
1764363689.9553561,140301,1.2072,29.03,-7.01379871916196,1.071734693877552,64
1764363690.0577848,140401,1.2023,28.73,-7.391227799907584,0.7717346938775513,64
1764363690.159852,140501,1.2023,28.7,-7.391227799907584,0.7417346938775502,64
1764363690.2646842,140601,1.2072,28.73,-7.01379871916196,0.7717346938775513,65
1764363690.36665,140701,1.2023,28.48,-7.391227799907584,0.5217346938775513,67
1764363690.469019,140801,1.2072,29.17,-7.01379871916196,1.2117346938775526,69
1764363690.5714228,140901,1.1975,29.17,-7.760954246352261,1.2117346938775526,69
1764363690.6738117,141001,1.2023,29.06,-7.391227799907584,1.1017346938775496,70
1764363690.776307,141101,1.2023,28.95,-7.391227799907584,0.9917346938775502,70
1764363690.8797288,141201,1.2023,28.29,-7.391227799907584,0.33173469387755006,69
1764363690.981666,141301,1.2023,28.37,-7.391227799907584,0.4117346938775519,68
1764363691.0835533,141401,1.2023,28.15,-7.391227799907584,0.1917346938775495,68
1764363691.1862202,141501,1.1975,29.03,-7.760954246352261,1.071734693877552,68
1764363691.2887127,141601,1.1975,29.1,-7.760954246352261,1.1417346938775523,68
1764363691.390989,141701,1.2023,28.95,-7.391227799907584,0.9917346938775502,68
1764363691.4934106,141801,1.2072,28.4,-7.01379871916196,0.4417346938775495,68
1764363691.596554,141901,1.2072,28.77,-7.01379871916196,0.8117346938775505,69
1764363691.698917,142001,1.2072,29.1,-7.01379871916196,1.1417346938775523,71
1764363691.8013358,142101,1.2121,28.95,-6.636369638416352,0.9917346938775502,72
1764363691.9028828,142201,1.2023,27.82,-7.391227799907584,-0.1382653061224488,73
1764363692.0053866,142301,1.2121,28.95,-6.636369638416352,0.9917346938775502,74
1764363692.1076736,142401,1.2072,28.4,-7.01379871916196,0.4417346938775495,73
1764363692.2117963,142501,1.2072,28.99,-7.01379871916196,1.0317346938775493,71
1764363692.3140595,142601,1.1975,28.51,-7.760954246352261,0.5517346938775525,68
1764363692.415862,142701,1.2072,28.73,-7.01379871916196,0.7717346938775513,65
1764363692.5184672,142801,1.2072,28.7,-7.01379871916196,0.7417346938775502,65
1764363692.621194,142901,1.2023,27.97,-7.391227799907584,0.011734693877549773,65
1764363692.7232769,143001,1.2072,28.88,-7.01379871916196,0.9217346938775499,65
1764363692.8270402,143101,1.2023,28.44,-7.391227799907584,0.4817346938775522,68
1764363692.9297726,143201,1.2023,28.44,-7.391227799907584,0.4817346938775522,72
1764363693.0318155,143301,1.2072,29.03,-7.01379871916196,1.071734693877552,70
1764363693.1340134,143401,1.2023,28.95,-7.391227799907584,0.9917346938775502,69
1764363693.2361958,143501,1.2023,27.75,-7.391227799907584,-0.2082653061224491,68
1764363693.338616,143601,1.2023,28.59,-7.391227799907584,0.6317346938775508,67
1764363693.4407153,143701,1.2023,28.81,-7.391227799907584,0.8517346938775496,67
1764363693.5432305,143801,1.2072,29.03,-7.01379871916196,1.071734693877552,69
1764363693.6455593,143901,1.2023,28.37,-7.391227799907584,0.4117346938775519,70
1764363693.7475853,144001,1.2072,29.03,-7.01379871916196,1.071734693877552,72
1764363693.849589,144101,1.2023,28.62,-7.391227799907584,0.6617346938775519,73
1764363693.9517655,144201,1.2023,28.88,-7.391227799907584,0.9217346938775499,72
1764363694.0542932,144301,1.2023,27.68,-7.391227799907584,-0.2782653061224494,71
1764363694.1568034,144401,1.2023,29.17,-7.391227799907584,1.2117346938775526,72
1764363694.260292,144501,1.2023,28.73,-7.391227799907584,0.7717346938775513,71
1764363694.362412,144601,1.2023,28.92,-7.391227799907584,0.9617346938775526,71
1764363694.464692,144701,1.1975,28.33,-7.760954246352261,0.3717346938775492,70
1764363694.5670896,144801,1.2023,28.62,-7.391227799907584,0.6617346938775519,70
1764363694.6695924,144901,1.1975,27.82,-7.760954246352261,-0.1382653061224488,70
1764363694.771518,145001,1.2023,29.17,-7.391227799907584,1.2117346938775526,70
1764363694.8733559,145101,1.1975,28.59,-7.760954246352261,0.6317346938775508,70
1764363694.9760494,145201,1.2023,28.4,-7.391227799907584,0.4417346938775495,71
1764363695.0782907,145301,1.2023,28.84,-7.391227799907584,0.8817346938775508,71
1764363695.1801903,145401,1.2072,29.03,-7.01379871916196,1.071734693877552,71
1764363695.2824903,145501,1.1975,28.92,-7.760954246352261,0.9617346938775526,69
1764363695.3848877,145601,1.2023,29.17,-7.391227799907584,1.2117346938775526,66
1764363695.4873705,145701,1.1975,28.73,-7.760954246352261,0.7717346938775513,63
1764363695.590504,145801,1.1975,28.22,-7.760954246352261,0.2617346938775498,60
1764363695.6940358,145901,1.1975,28.11,-7.760954246352261,0.15173469387755034,58
1764363695.7963574,146001,1.2023,28.55,-7.391227799907584,0.5917346938775516,56
1764363695.8983834,146101,1.2023,28.81,-7.391227799907584,0.8517346938775496,56
1764363696.0009613,146201,1.2023,28.73,-7.391227799907584,0.7717346938775513,56
1764363696.1032267,146301,1.2023,29.06,-7.391227799907584,1.1017346938775496,56
1764363696.205806,146401,1.2023,28.77,-7.391227799907584,0.8117346938775505,56
1764363696.3092623,146501,1.2023,27.54,-7.391227799907584,-0.41826530612244994,56
1764363696.4115167,146601,1.2072,29.1,-7.01379871916196,1.1417346938775523,56
1764363696.513549,146701,1.2023,28.4,-7.391227799907584,0.4417346938775495,57
1764363696.616203,146801,1.2072,27.75,-7.01379871916196,-0.2082653061224491,57
1764363696.7189517,146901,1.2023,27.75,-7.391227799907584,-0.2082653061224491,58
1764363696.8210647,147001,1.2023,28.95,-7.391227799907584,0.9917346938775502,59
1764363696.9239237,147101,1.2023,28.66,-7.391227799907584,0.701734693877551,60
1764363697.0267115,147201,1.2023,28.62,-7.391227799907584,0.6617346938775519,60
1764363697.128937,147301,1.1975,28.55,-7.760954246352261,0.5917346938775516,60
1764363697.231206,147401,1.2023,28.04,-7.391227799907584,0.08173469387755006,60
1764363697.3340526,147501,1.2023,28.44,-7.391227799907584,0.4817346938775522,60
1764363697.4363968,147601,1.2023,28.55,-7.391227799907584,0.5917346938775516,61
1764363697.5385492,147701,1.2023,28.73,-7.391227799907584,0.7717346938775513,62
1764363697.6416688,147801,1.2023,28.92,-7.391227799907584,0.9617346938775526,62
1764363697.7444603,147901,1.2023,28.55,-7.391227799907584,0.5917346938775516,63
1764363697.8467555,148001,1.2023,28.04,-7.391227799907584,0.08173469387755006,64
1764363697.9502382,148101,1.2023,28.73,-7.391227799907584,0.7717346938775513,64
1764363698.052643,148201,1.1975,28.62,-7.760954246352261,0.6617346938775519,65
1764363698.1543214,148301,1.1975,28.77,-7.760954246352261,0.8117346938775505,66
1764363698.2573886,148401,1.1975,28.81,-7.760954246352261,0.8517346938775496,65
1764363698.3593912,148501,1.2023,29.17,-7.391227799907584,1.2117346938775526,63
1764363698.4615843,148601,1.2023,28.4,-7.391227799907584,0.4417346938775495,61
1764363698.5640585,148701,1.2023,29.03,-7.391227799907584,1.071734693877552,59
1764363698.6657891,148801,1.1926,28.04,-8.13838332709787,0.08173469387755006,57
1764363698.7684102,148901,1.1975,28.51,-7.760954246352261,0.5517346938775525,57
1764363698.8707929,149001,1.2023,28.95,-7.391227799907584,0.9917346938775502,56
1764363698.9762707,149101,1.2023,29.06,-7.391227799907584,1.1017346938775496,56
1764363699.0782933,149201,1.2023,28.88,-7.391227799907584,0.9217346938775499,56
1764363699.1804764,149301,1.1975,28.77,-7.760954246352261,0.8117346938775505,55
1764363699.2829027,149401,1.2072,29.03,-7.01379871916196,1.071734693877552,55
1764363699.3850863,149501,1.2023,29.1,-7.391227799907584,1.1417346938775523,53
1764363699.4890757,149601,1.2023,28.7,-7.391227799907584,0.7417346938775502,50
1764363699.5921805,149701,1.2023,28.59,-7.391227799907584,0.6317346938775508,49
1764363699.69415,149801,1.1975,28.19,-7.760954246352261,0.2317346938775522,47
1764363699.7969036,149901,1.1975,28.22,-7.760954246352261,0.2617346938775498,45
1764363699.8990264,150001,1.2023,28.55,-7.391227799907584,0.5917346938775516,45
1764363700.001402,150101,1.2023,29.14,-7.391227799907584,1.1817346938775515,46
1764363700.1036575,150201,1.2023,28.88,-7.391227799907584,0.9217346938775499,46
1764363700.2063868,150301,1.2023,28.73,-7.391227799907584,0.7717346938775513,47
1764363700.3090625,150401,1.2023,29.06,-7.391227799907584,1.1017346938775496,48
1764363700.4112186,150501,1.1975,28.15,-7.760954246352261,0.1917346938775495,47
1764363700.5135977,150601,1.2023,27.82,-7.391227799907584,-0.1382653061224488,46
1764363700.616045,150701,1.2023,28.92,-7.391227799907584,0.9617346938775526,44
1764363700.7185123,150801,1.2023,28.81,-7.391227799907584,0.8517346938775496,43
1764363700.8206003,150901,1.2023,28.62,-7.391227799907584,0.6617346938775519,42
1764363700.9233232,151001,1.2023,28.37,-7.391227799907584,0.4117346938775519,42
1764363701.0265484,151101,1.1975,28.04,-7.760954246352261,0.08173469387755006,42
1764363701.1283383,151201,1.2023,28.95,-7.391227799907584,0.9917346938775502,42
1764363701.230999,151301,1.2023,27.68,-7.391227799907584,-0.2782653061224494,42
1764363701.3330314,151401,1.2023,28.77,-7.391227799907584,0.8117346938775505,42
1764363701.4352295,151501,1.2023,28.22,-7.391227799907584,0.2617346938775498,42
1764363701.538986,151601,1.2023,28.55,-7.391227799907584,0.5917346938775516,42
1764363701.6418636,151701,1.2023,29.14,-7.391227799907584,1.1817346938775515,42
1764363701.744423,151801,1.2023,29.14,-7.391227799907584,1.1817346938775515,42
1764363701.8465648,151901,1.2023,28.92,-7.391227799907584,0.9617346938775526,42
1764363701.9486492,152001,1.2072,29.1,-7.01379871916196,1.1417346938775523,42
1764363702.0509484,152101,1.2023,28.66,-7.391227799907584,0.701734693877551,42
1764363702.1535478,152201,1.2072,28.95,-7.01379871916196,0.9917346938775502,42
1764363702.2564654,152301,1.2121,28.95,-6.636369638416352,0.9917346938775502,42
1764363702.3583453,152401,1.2023,27.86,-7.391227799907584,-0.09826530612244966,42
1764363702.4605052,152501,1.2023,28.37,-7.391227799907584,0.4117346938775519,42
1764363702.5627186,152601,1.2023,28.66,-7.391227799907584,0.701734693877551,42
1764363702.6651576,152701,1.2023,28.99,-7.391227799907584,1.0317346938775493,42
1764363702.767922,152801,1.2072,27.64,-7.01379871916196,-0.3182653061224485,42
1764363702.8704755,152901,1.2023,28.15,-7.391227799907584,0.1917346938775495,42
1764363702.9731998,153001,1.2023,29.1,-7.391227799907584,1.1417346938775523,42
1764363703.0757673,153101,1.1926,28.08,-8.13838332709787,0.1217346938775492,42
1764363703.1781507,153201,1.1975,28.37,-7.760954246352261,0.4117346938775519,42
1764363703.2804756,153301,1.1975,28.04,-7.760954246352261,0.08173469387755006,42
1764363703.3828578,153401,1.2023,28.81,-7.391227799907584,0.8517346938775496,42
1764363703.4852364,153501,1.2072,28.77,-7.01379871916196,0.8117346938775505,42
1764363703.5886412,153601,1.2023,28.59,-7.391227799907584,0.6317346938775508,42
1764363703.6905866,153701,1.2023,28.81,-7.391227799907584,0.8517346938775496,42
1764363703.7922957,153801,1.2023,28.81,-7.391227799907584,0.8517346938775496,42
1764363703.8948917,153901,1.2023,28.84,-7.391227799907584,0.8817346938775508,42
1764363703.997075,154001,1.2072,27.82,-7.01379871916196,-0.1382653061224488,42
1764363704.0994036,154101,1.2072,28.81,-7.01379871916196,0.8517346938775496,42
1764363704.2013059,154201,1.2072,28.37,-7.01379871916196,0.4117346938775519,42
1764363704.3046541,154301,1.2072,28.95,-7.01379871916196,0.9917346938775502,42
1764363704.4071467,154401,1.2072,28.88,-7.01379871916196,0.9217346938775499,42
1764363704.5094068,154501,1.2121,29.06,-6.636369638416352,1.1017346938775496,42
1764363704.6116488,154601,1.2072,28.99,-7.01379871916196,1.0317346938775493,42
1764363704.7146387,154701,1.2072,28.44,-7.01379871916196,0.4817346938775522,42
1764363704.8171873,154801,1.2023,28.88,-7.391227799907584,0.9217346938775499,42
1764363704.9200811,154901,1.2023,28.66,-7.391227799907584,0.701734693877551,42
1764363705.0226922,155001,1.2023,27.93,-7.391227799907584,-0.028265306122449374,42
1764363705.1244059,155101,1.2072,28.55,-7.01379871916196,0.5917346938775516,42
1764363705.226603,155201,1.2072,28.84,-7.01379871916196,0.8817346938775508,42
1764363705.3283262,155301,1.2023,28.73,-7.391227799907584,0.7717346938775513,42
1764363705.4304597,155401,1.1926,28.62,-8.13838332709787,0.6617346938775519,42
1764363705.5331693,155501,1.1926,27.93,-8.13838332709787,-0.028265306122449374,42
1764363705.635782,155601,1.1975,28.59,-7.760954246352261,0.6317346938775508,42
1764363705.7379959,155701,1.2023,28.7,-7.391227799907584,0.7417346938775502,42
1764363705.8404472,155801,1.2072,28.22,-7.01379871916196,0.2617346938775498,42
1764363705.9426963,155901,1.2072,28.95,-7.01379871916196,0.9917346938775502,42
1764363706.0449939,156001,1.2072,28.19,-7.01379871916196,0.2317346938775522,42
1764363706.1477392,156101,1.2072,29.06,-7.01379871916196,1.1017346938775496,42
1764363706.2500885,156201,1.1975,29.1,-7.760954246352261,1.1417346938775523,42
1764363706.3529572,156301,1.2023,28.0,-7.391227799907584,0.04173469387755091,42
1764363706.455508,156401,1.2023,29.17,-7.391227799907584,1.2117346938775526,42
1764363706.5576046,156501,1.2023,28.33,-7.391227799907584,0.3717346938775492,42
1764363706.6598346,156601,1.2072,28.99,-7.01379871916196,1.0317346938775493,42
1764363706.7623181,156701,1.2072,29.1,-7.01379871916196,1.1417346938775523,43
1764363706.8647103,156801,1.2072,29.03,-7.01379871916196,1.071734693877552,43
1764363706.9673996,156901,1.2023,27.68,-7.391227799907584,-0.2782653061224494,45
1764363707.0701146,157001,1.2023,27.64,-7.391227799907584,-0.3182653061224485,46
1764363707.1720152,157101,1.2072,28.48,-7.01379871916196,0.5217346938775513,48
1764363707.274165,157201,1.2023,28.66,-7.391227799907584,0.701734693877551,48
1764363707.3764756,157301,1.2023,28.81,-7.391227799907584,0.8517346938775496,49
1764363707.4787161,157401,1.2072,28.48,-7.01379871916196,0.5217346938775513,49
1764363707.581032,157501,1.1975,28.77,-7.760954246352261,0.8117346938775505,49
1764363707.6838222,157601,1.2023,28.84,-7.391227799907584,0.8817346938775508,50
1764363707.786432,157701,1.2072,28.33,-7.01379871916196,0.3717346938775492,51
1764363707.8885856,157801,1.2121,29.14,-6.636369638416352,1.1817346938775515,51
1764363707.990306,157901,1.2121,28.92,-6.636369638416352,0.9617346938775526,52
1764363708.0921817,158001,1.2072,29.17,-7.01379871916196,1.2117346938775526,52
1764363708.1947062,158101,1.2023,27.68,-7.391227799907584,-0.2782653061224494,51
1764363708.2971292,158201,1.2023,28.88,-7.391227799907584,0.9217346938775499,51
1764363708.4007254,158301,1.1975,27.68,-7.760954246352261,-0.2782653061224494,50
1764363708.5035217,158401,1.2023,27.68,-7.391227799907584,-0.2782653061224494,50
1764363708.606105,158501,1.2023,28.73,-7.391227799907584,0.7717346938775513,50
1764363708.7085433,158601,1.1975,28.19,-7.760954246352261,0.2317346938775522,50
1764363708.8109963,158701,1.1926,29.06,-8.13838332709787,1.1017346938775496,50
1764363708.9132874,158801,1.1877,28.84,-8.515812407843494,0.8817346938775508,50
1764363709.0156453,158901,1.1975,28.7,-7.760954246352261,0.7417346938775502,50
1764363709.1187725,159001,1.2023,27.64,-7.391227799907584,-0.3182653061224485,50
1764363709.221069,159101,1.2072,29.14,-7.01379871916196,1.1817346938775515,50
1764363709.324655,159201,1.2072,28.59,-7.01379871916196,0.6317346938775508,50
1764363709.4270434,159301,1.2023,29.14,-7.391227799907584,1.1817346938775515,52
1764363709.529056,159401,1.1975,28.19,-7.760954246352261,0.2317346938775522,54
1764363709.6315737,159501,1.2023,28.48,-7.391227799907584,0.5217346938775513,57
1764363709.7341325,159601,1.2072,29.1,-7.01379871916196,1.1417346938775523,59
1764363709.8368459,159701,1.2072,27.61,-7.01379871916196,-0.34826530612244966,61
1764363709.939114,159801,1.2072,28.44,-7.01379871916196,0.4817346938775522,61
1764363710.0416677,159901,1.2023,28.62,-7.391227799907584,0.6617346938775519,62
1764363710.1442184,160001,1.2023,28.66,-7.391227799907584,0.701734693877551,63
1764363710.2466538,160101,1.2023,28.51,-7.391227799907584,0.5517346938775525,63
1764363710.3508227,160201,1.2072,28.81,-7.01379871916196,0.8517346938775496,64
1764363710.4530046,160301,1.2072,28.88,-7.01379871916196,0.9217346938775499,64
1764363710.5558054,160401,1.2023,27.93,-7.391227799907584,-0.028265306122449374,64
1764363710.6578524,160501,1.1926,28.88,-8.13838332709787,0.9217346938775499,64
1764363710.7598953,160601,1.1926,28.37,-8.13838332709787,0.4117346938775519,64
1764363710.8627663,160701,1.1975,28.29,-7.760954246352261,0.33173469387755006,64
1764363710.965605,160801,1.217,29.03,-6.258940557670726,1.071734693877552,64
1764363711.068333,160901,1.2023,28.22,-7.391227799907584,0.2617346938775498,64
1764363711.1709025,161001,1.2072,28.48,-7.01379871916196,0.5217346938775513,64
1764363711.273739,161101,1.2072,29.17,-7.01379871916196,1.2117346938775526,64
1764363711.3764594,161201,1.2072,28.55,-7.01379871916196,0.5917346938775516,63
1764363711.4785933,161301,1.2072,28.51,-7.01379871916196,0.5517346938775525,63
1764363711.5815587,161401,1.2072,28.95,-7.01379871916196,0.9917346938775502,63
1764363711.684146,161501,1.2072,28.4,-7.01379871916196,0.4417346938775495,63
1764363711.786951,161601,1.2072,28.73,-7.01379871916196,0.7717346938775513,63
1764363711.889303,161701,1.2023,28.66,-7.391227799907584,0.701734693877551,63
1764363711.9911656,161801,1.2072,28.92,-7.01379871916196,0.9617346938775526,63
1764363712.0934289,161901,1.2023,29.03,-7.391227799907584,1.071734693877552,63
1764363712.1960752,162001,1.2023,28.33,-7.391227799907584,0.3717346938775492,63
1764363712.3008978,162101,1.2023,27.68,-7.391227799907584,-0.2782653061224494,63
1764363712.4028752,162201,1.2023,28.92,-7.391227799907584,0.9617346938775526,63
1764363712.5053542,162301,1.1975,29.17,-7.760954246352261,1.2117346938775526,64
1764363712.6076982,162401,1.1926,27.68,-8.13838332709787,-0.2782653061224494,65
1764363712.7102244,162501,1.1926,28.88,-8.13838332709787,0.9217346938775499,65
1764363712.8128476,162601,1.2023,27.82,-7.391227799907584,-0.1382653061224488,66
1764363712.9160252,162701,1.1975,28.04,-7.760954246352261,0.08173469387755006,66
1764363713.0180097,162801,1.1926,27.9,-8.13838332709787,-0.05826530612245051,66
1764363713.1204042,162901,1.1877,28.59,-8.515812407843494,0.6317346938775508,65
1764363713.2228043,163001,1.1828,28.81,-8.893241488589101,0.8517346938775496,65
1764363713.3249002,163101,1.1828,29.14,-8.893241488589101,1.1817346938775515,65
1764363713.4274306,163201,1.1779,27.97,-9.270670569334726,0.011734693877549773,65
1764363713.529698,163301,1.173,28.73,-9.648099650080335,0.7717346938775513,65
1764363713.6324553,163401,1.1681,28.59,-10.025528730825958,0.6317346938775508,65
1764363713.736031,163501,1.1681,28.48,-10.025528730825958,0.5217346938775513,65
1764363713.8384798,163601,1.1681,28.7,-10.025528730825958,0.7417346938775502,65
1764363713.9404352,163701,1.1681,28.7,-10.025528730825958,0.7417346938775502,65
1764363714.045598,163801,1.173,29.17,-9.648099650080335,1.2117346938775526,65
1764363714.1483877,163901,1.1681,27.54,-10.025528730825958,-0.41826530612244994,65
1764363714.2512043,164001,1.1681,28.81,-10.025528730825958,0.8517346938775496,65
1764363714.3538923,164101,1.1632,28.04,-10.402957811571566,0.08173469387755006,65
1764363714.456208,164201,1.173,29.03,-9.648099650080335,1.071734693877552,65
1764363714.5589666,164301,1.1681,29.03,-10.025528730825958,1.071734693877552,65
1764363714.6612895,164401,1.1632,28.19,-10.402957811571566,0.2317346938775522,65
1764363714.7644362,164501,1.1584,28.51,-10.772684258016243,0.5517346938775525,64
1764363714.8670318,164601,1.1632,28.88,-10.402957811571566,0.9217346938775499,63
1764363714.9690783,164701,1.1632,28.95,-10.402957811571566,0.9917346938775502,63
1764363715.07121,164801,1.1632,28.22,-10.402957811571566,0.2617346938775498,62
1764363715.173772,164901,1.1632,28.04,-10.402957811571566,0.08173469387755006,62
1764363715.2757158,165001,1.1632,28.77,-10.402957811571566,0.8117346938775505,62
1764363715.3777292,165101,1.1632,28.73,-10.402957811571566,0.7717346938775513,62
1764363715.4806898,165201,1.1535,28.95,-11.15011333876187,0.9917346938775502,63
1764363715.5829108,165301,1.1584,29.1,-10.772684258016243,1.1417346938775523,63
1764363715.6850705,165401,1.1681,29.03,-10.025528730825958,1.071734693877552,62
1764363715.7873027,165501,1.173,28.19,-9.648099650080335,0.2317346938775522,60
1764363715.8902535,165601,1.1681,28.95,-10.025528730825958,0.9917346938775502,58
1764363715.992565,165701,1.1681,29.14,-10.025528730825958,1.1817346938775515,55
1764363716.09792,165801,1.1681,28.73,-10.025528730825958,0.7717346938775513,53
1764363716.200122,165901,1.1681,27.82,-10.025528730825958,-0.1382653061224488,53
1764363716.3023772,166001,1.1632,28.15,-10.402957811571566,0.1917346938775495,53
1764363716.4048135,166101,1.1681,28.29,-10.025528730825958,0.33173469387755006,54
1764363716.507217,166201,1.1681,29.17,-10.025528730825958,1.2117346938775526,53
1764363716.6093926,166301,1.1632,27.61,-10.402957811571566,-0.34826530612244966,52
1764363716.7121267,166401,1.1632,28.66,-10.402957811571566,0.701734693877551,51
1764363716.8144138,166501,1.1632,28.0,-10.402957811571566,0.04173469387755091,50
1764363716.9174728,166601,1.1632,28.62,-10.402957811571566,0.6617346938775519,49
1764363717.0203059,166701,1.1632,28.88,-10.402957811571566,0.9217346938775499,50
1764363717.1225433,166801,1.1632,28.84,-10.402957811571566,0.8817346938775508,50
1764363717.2248988,166901,1.1681,29.17,-10.025528730825958,1.2117346938775526,50
1764363717.328088,167001,1.1681,29.1,-10.025528730825958,1.1417346938775523,50
1764363717.430878,167101,1.1681,28.33,-10.025528730825958,0.3717346938775492,50
1764363717.5333445,167201,1.1632,28.4,-10.402957811571566,0.4417346938775495,50
1764363717.635676,167301,1.1681,28.66,-10.025528730825958,0.701734693877551,50
1764363717.7380075,167401,1.1681,28.66,-10.025528730825958,0.701734693877551,50
1764363717.840331,167501,1.1681,28.48,-10.025528730825958,0.5217346938775513,50
1764363717.9427223,167601,1.1632,28.11,-10.402957811571566,0.15173469387755034,50
1764363718.0458522,167701,1.1681,29.14,-10.025528730825958,1.1817346938775515,50
1764363718.148403,167801,1.1681,28.84,-10.025528730825958,0.8817346938775508,50
1764363718.2509959,167901,1.1584,28.44,-10.772684258016243,0.4817346938775522,51
1764363718.3536813,168001,1.1681,28.81,-10.025528730825958,0.8517346938775496,51
1764363718.4561381,168101,1.1681,28.55,-10.025528730825958,0.5917346938775516,51
1764363718.558593,168201,1.1681,28.73,-10.025528730825958,0.7717346938775513,51
1764363718.6615455,168301,1.1632,28.66,-10.402957811571566,0.701734693877551,51
1764363718.7641854,168401,1.1584,28.22,-10.772684258016243,0.2617346938775498,51
1764363718.8661487,168501,1.1632,28.95,-10.402957811571566,0.9917346938775502,51
1764363718.96894,168601,1.1535,28.88,-11.15011333876187,0.9217346938775499,51
1764363719.0714712,168701,1.1584,29.1,-10.772684258016243,1.1417346938775523,51
1764363719.1740756,168801,1.1632,29.14,-10.402957811571566,1.1817346938775515,51
1764363719.2768147,168901,1.1632,28.48,-10.402957811571566,0.5217346938775513,49
1764363719.379063,169001,1.173,29.06,-9.648099650080335,1.1017346938775496,49
1764363719.4817407,169101,1.1681,29.06,-10.025528730825958,1.1017346938775496,48
1764363719.583754,169201,1.1632,29.03,-10.402957811571566,1.071734693877552,48
1764363719.6857328,169301,1.1632,28.81,-10.402957811571566,0.8517346938775496,48
1764363719.7882397,169401,1.1681,29.17,-10.025528730825958,1.2117346938775526,48
1764363719.890264,169501,1.1681,29.17,-10.025528730825958,1.2117346938775526,48
1764363719.9927804,169601,1.1632,28.04,-10.402957811571566,0.08173469387755006,48
1764363720.0956712,169701,1.1681,27.61,-10.025528730825958,-0.34826530612244966,48
1764363720.197827,169801,1.1681,28.44,-10.025528730825958,0.4817346938775522,48
1764363720.2997475,169901,1.1681,28.51,-10.025528730825958,0.5517346938775525,48
1764363720.4011734,170001,1.173,28.95,-9.648099650080335,0.9917346938775502,48
1764363720.503141,170101,1.173,29.1,-9.648099650080335,1.1417346938775523,48
1764363720.6056535,170201,1.1681,28.7,-10.025528730825958,0.7417346938775502,48
1764363720.7085283,170301,1.173,29.17,-9.648099650080335,1.2117346938775526,53
1764363720.8112113,170401,1.1681,29.1,-10.025528730825958,1.1417346938775523,56
1764363720.9134824,170501,1.173,29.06,-9.648099650080335,1.1017346938775496,60
1764363721.0157502,170601,1.1681,28.66,-10.025528730825958,0.701734693877551,63
1764363721.1184263,170701,1.173,29.1,-9.648099650080335,1.1417346938775523,63
1764363721.2209816,170801,1.1681,28.84,-10.025528730825958,0.8817346938775508,63
1764363721.3230872,170901,1.173,29.06,-9.648099650080335,1.1017346938775496,63
1764363721.4252753,171001,1.1681,28.33,-10.025528730825958,0.3717346938775492,63
1764363721.5279877,171101,1.1681,28.19,-10.025528730825958,0.2317346938775522,63
1764363721.6302528,171201,1.1681,28.66,-10.025528730825958,0.701734693877551,63
1764363721.7326198,171301,1.1681,28.81,-10.025528730825958,0.8517346938775496,63
1764363721.8347278,171401,1.1681,28.66,-10.025528730825958,0.701734693877551,63
1764363721.9366512,171501,1.1681,28.81,-10.025528730825958,0.8517346938775496,63
1764363722.0393298,171601,1.173,29.1,-9.648099650080335,1.1417346938775523,63
1764363722.1416764,171701,1.173,28.33,-9.648099650080335,0.3717346938775492,63
1764363722.2442172,171801,1.1632,27.82,-10.402957811571566,-0.1382653061224488,63
1764363722.3462017,171901,1.1681,28.81,-10.025528730825958,0.8517346938775496,63
1764363722.4483254,172001,1.1681,28.62,-10.025528730825958,0.6617346938775519,63
1764363722.5507052,172101,1.1681,28.26,-10.025528730825958,0.3017346938775525,63
1764363722.6532068,172201,1.1681,28.33,-10.025528730825958,0.3717346938775492,63
1764363722.7558756,172301,1.1681,28.66,-10.025528730825958,0.701734693877551,61
1764363722.85872,172401,1.1681,27.79,-10.025528730825958,-0.16826530612244994,56
1764363722.9625368,172501,1.173,27.57,-9.648099650080335,-0.3882653061224488,50
1764363723.065149,172601,1.1681,29.17,-10.025528730825958,1.2117346938775526,46
1764363723.1676183,172701,1.1632,28.04,-10.402957811571566,0.08173469387755006,41
1764363723.2698932,172801,1.1681,28.84,-10.025528730825958,0.8817346938775508,42
1764363723.3724823,172901,1.1681,28.73,-10.025528730825958,0.7717346938775513,42
1764363723.4756618,173001,1.1681,28.55,-10.025528730825958,0.5917346938775516,43
1764363723.5779486,173101,1.1681,28.48,-10.025528730825958,0.5217346938775513,43
1764363723.6799717,173201,1.1584,28.22,-10.772684258016243,0.2617346938775498,43
1764363723.7822351,173301,1.1681,27.97,-10.025528730825958,0.011734693877549773,43
1764363723.8846555,173401,1.1681,28.44,-10.025528730825958,0.4817346938775522,43
1764363723.9872944,173501,1.1681,28.04,-10.025528730825958,0.08173469387755006,43
1764363724.0904462,173601,1.1681,27.79,-10.025528730825958,-0.16826530612244994,43
1764363724.19326,173701,1.1535,27.93,-11.15011333876187,-0.028265306122449374,43
1764363724.296406,173801,1.1681,28.48,-10.025528730825958,0.5217346938775513,43
1764363724.398599,173901,1.1681,28.29,-10.025528730825958,0.33173469387755006,43
1764363724.5014303,174001,1.1681,28.88,-10.025528730825958,0.9217346938775499,43
1764363724.6035383,174101,1.1632,28.59,-10.402957811571566,0.6317346938775508,43
1764363724.7055902,174201,1.1632,27.68,-10.402957811571566,-0.2782653061224494,43
1764363724.808871,174301,1.1681,28.92,-10.025528730825958,0.9617346938775526,43
1764363724.9108558,174401,1.1632,27.93,-10.402957811571566,-0.028265306122449374,42
1764363725.0127134,174501,1.1681,29.1,-10.025528730825958,1.1417346938775523,42
1764363725.1156957,174601,1.1681,28.59,-10.025528730825958,0.6317346938775508,42
1764363725.2181993,174701,1.1681,28.4,-10.025528730825958,0.4417346938775495,42
1764363725.3204434,174801,1.1681,28.84,-10.025528730825958,0.8817346938775508,42
1764363725.4252274,174901,1.1681,28.51,-10.025528730825958,0.5517346938775525,42
1764363725.527627,175001,1.1632,28.0,-10.402957811571566,0.04173469387755091,42
1764363725.629667,175101,1.1681,28.11,-10.025528730825958,0.15173469387755034,42
1764363725.7319808,175201,1.1681,29.1,-10.025528730825958,1.1417346938775523,42
1764363725.8342798,175301,1.1681,28.37,-10.025528730825958,0.4117346938775519,42
1764363725.9366717,175401,1.1681,28.33,-10.025528730825958,0.3717346938775492,48
1764363726.0397909,175501,1.1779,29.17,-9.270670569334726,1.2117346938775526,53
1764363726.1425254,175601,1.1681,28.48,-10.025528730825958,0.5217346938775513,53
1764363726.24487,175701,1.173,29.1,-9.648099650080335,1.1417346938775523,54
1764363726.3478565,175801,1.1681,28.7,-10.025528730825958,0.7417346938775502,55
1764363726.4507246,175901,1.1681,28.81,-10.025528730825958,0.8517346938775496,50
1764363726.553024,176001,1.173,28.99,-9.648099650080335,1.0317346938775493,46
1764363726.6561916,176101,1.1681,28.55,-10.025528730825958,0.5917346938775516,46
1764363726.7586892,176201,1.1681,28.84,-10.025528730825958,0.8817346938775508,46
1764363726.8609786,176301,1.1681,27.68,-10.025528730825958,-0.2782653061224494,46
1764363726.96339,176401,1.1681,28.7,-10.025528730825958,0.7417346938775502,46
1764363727.065853,176501,1.173,29.17,-9.648099650080335,1.2117346938775526,46
1764363727.1690097,176601,1.1681,28.48,-10.025528730825958,0.5217346938775513,46
1764363727.271301,176701,1.1681,28.51,-10.025528730825958,0.5517346938775525,46
1764363727.3748336,176801,1.1681,28.4,-10.025528730825958,0.4417346938775495,47
1764363727.4770558,176901,1.1681,28.48,-10.025528730825958,0.5217346938775513,47
1764363727.57947,177001,1.173,28.99,-9.648099650080335,1.0317346938775493,48
1764363727.6816883,177101,1.1681,28.51,-10.025528730825958,0.5517346938775525,47
1764363727.7840872,177201,1.1681,28.37,-10.025528730825958,0.4117346938775519,46
1764363727.8863294,177301,1.1681,28.59,-10.025528730825958,0.6317346938775508,46
1764363727.9895139,177401,1.1681,28.22,-10.025528730825958,0.2617346938775498,45
1764363728.0918493,177501,1.1681,28.95,-10.025528730825958,0.9917346938775502,45
1764363728.1937828,177601,1.1681,28.62,-10.025528730825958,0.6617346938775519,45
1764363728.2959905,177701,1.1632,28.04,-10.402957811571566,0.08173469387755006,45
1764363728.3986313,177801,1.1632,28.81,-10.402957811571566,0.8517346938775496,45
1764363728.5005653,177901,1.1632,28.59,-10.402957811571566,0.6317346938775508,45
1764363728.603515,178001,1.1632,27.82,-10.402957811571566,-0.1382653061224488,45
1764363728.706663,178101,1.1632,27.9,-10.402957811571566,-0.05826530612245051,45
1764363728.809293,178201,1.1681,29.03,-10.025528730825958,1.071734693877552,45
1764363728.9112587,178301,1.1681,28.84,-10.025528730825958,0.8817346938775508,45
1764363729.0132265,178401,1.1632,27.97,-10.402957811571566,0.011734693877549773,45
1764363729.1160092,178501,1.1681,27.64,-10.025528730825958,-0.3182653061224485,45
1764363729.21785,178601,1.1681,28.95,-10.025528730825958,0.9917346938775502,45
1764363729.3204837,178701,1.1681,28.55,-10.025528730825958,0.5917346938775516,45
1764363729.423663,178801,1.1681,28.59,-10.025528730825958,0.6317346938775508,45
1764363729.5259528,178901,1.1681,29.03,-10.025528730825958,1.071734693877552,44
1764363729.6288228,179001,1.1681,28.84,-10.025528730825958,0.8817346938775508,44
1764363729.731261,179101,1.1681,28.29,-10.025528730825958,0.33173469387755006,44
1764363729.8331218,179201,1.1681,28.66,-10.025528730825958,0.701734693877551,44
1764363729.9371,179301,1.1681,28.55,-10.025528730825958,0.5917346938775516,44
1764363730.039618,179401,1.1681,27.68,-10.025528730825958,-0.2782653061224494,44
1764363730.1418943,179501,1.173,27.9,-9.648099650080335,-0.05826530612245051,44
1764363730.243973,179601,1.1779,28.99,-9.270670569334726,1.0317346938775493,44
1764363730.3464806,179701,1.1681,28.7,-10.025528730825958,0.7417346938775502,44
1764363730.4488487,179801,1.173,28.04,-9.648099650080335,0.08173469387755006,44
1764363730.551075,179901,1.1681,28.15,-10.025528730825958,0.1917346938775495,44
1764363730.6549249,180001,1.1681,27.97,-10.025528730825958,0.011734693877549773,44
1764363730.7572892,180101,1.1681,28.81,-10.025528730825958,0.8517346938775496,44
1764363730.859708,180201,1.1681,29.17,-10.025528730825958,1.2117346938775526,44
1764363730.9618511,180301,1.173,29.06,-9.648099650080335,1.1017346938775496,44
1764363731.064472,180401,1.1681,28.7,-10.025528730825958,0.7417346938775502,44
1764363731.1667743,180501,1.173,29.03,-9.648099650080335,1.071734693877552,44
1764363731.2687337,180601,1.1681,28.59,-10.025528730825958,0.6317346938775508,44
1764363731.371146,180701,1.1681,28.84,-10.025528730825958,0.8817346938775508,44
1764363731.473536,180801,1.1681,28.51,-10.025528730825958,0.5517346938775525,44
1764363731.5754857,180901,1.173,28.92,-9.648099650080335,0.9617346938775526,44
1764363731.6779003,181001,1.1632,27.97,-10.402957811571566,0.011734693877549773,44
1764363731.7800832,181101,1.1681,28.51,-10.025528730825958,0.5517346938775525,44
1764363731.8823159,181201,1.1681,29.03,-10.025528730825958,1.071734693877552,44
1764363731.9846134,181301,1.1681,29.17,-10.025528730825958,1.2117346938775526,44
1764363732.0879385,181401,1.173,29.06,-9.648099650080335,1.1017346938775496,44
1764363732.190323,181501,1.1681,28.33,-10.025528730825958,0.3717346938775492,44
1764363732.2924776,181601,1.1681,28.59,-10.025528730825958,0.6317346938775508,44
1764363732.3949337,181701,1.1632,28.48,-10.402957811571566,0.5217346938775513,44
1764363732.4975593,181801,1.1681,28.95,-10.025528730825958,0.9917346938775502,44
1764363732.5994482,181901,1.1681,28.95,-10.025528730825958,0.9917346938775502,44
1764363732.7025623,182001,1.1681,27.68,-10.025528730825958,-0.2782653061224494,44
1764363732.8048372,182101,1.1632,28.04,-10.402957811571566,0.08173469387755006,44
1764363732.9067078,182201,1.1681,27.79,-10.025528730825958,-0.16826530612244994,44
1764363733.0087197,182301,1.1681,28.48,-10.025528730825958,0.5217346938775513,44
1764363733.1113412,182401,1.1632,28.0,-10.402957811571566,0.04173469387755091,43
1764363733.213713,182501,1.1632,28.48,-10.402957811571566,0.5217346938775513,43
1764363733.3161275,182601,1.1584,28.55,-10.772684258016243,0.5917346938775516,42
1764363733.4186153,182701,1.1681,29.17,-10.025528730825958,1.2117346938775526,41
1764363733.5213783,182801,1.1681,29.1,-10.025528730825958,1.1417346938775523,40
1764363733.6243536,182901,1.1681,29.14,-10.025528730825958,1.1817346938775515,40
1764363733.7263505,183001,1.1584,28.26,-10.772684258016243,0.3017346938775525,40
1764363733.828955,183101,1.1681,28.33,-10.025528730825958,0.3717346938775492,40
1764363733.931582,183201,1.173,29.06,-9.648099650080335,1.1017346938775496,40
1764363734.0341003,183301,1.1681,28.77,-10.025528730825958,0.8117346938775505,40
1764363734.1382055,183401,1.1681,28.95,-10.025528730825958,0.9917346938775502,40
1764363734.2402174,183501,1.1681,28.51,-10.025528730825958,0.5517346938775525,40
1764363734.3420768,183601,1.1681,28.48,-10.025528730825958,0.5217346938775513,40
1764363734.4444182,183701,1.1681,29.03,-10.025528730825958,1.071734693877552,40
1764363734.5468554,183801,1.1681,28.55,-10.025528730825958,0.5917346938775516,40
1764363734.6498258,183901,1.1632,28.15,-10.402957811571566,0.1917346938775495,40
1764363734.7526977,184001,1.1681,29.1,-10.025528730825958,1.1417346938775523,40
1764363734.85535,184101,1.1681,28.04,-10.025528730825958,0.08173469387755006,40
1764363734.957368,184201,1.1681,29.17,-10.025528730825958,1.2117346938775526,40
1764363735.0596848,184301,1.1681,27.97,-10.025528730825958,0.011734693877549773,40
1764363735.161838,184401,1.1681,28.81,-10.025528730825958,0.8517346938775496,40
1764363735.2644603,184501,1.1681,29.1,-10.025528730825958,1.1417346938775523,40
1764363735.366689,184601,1.1681,28.84,-10.025528730825958,0.8817346938775508,40
1764363735.469206,184701,1.1535,28.15,-11.15011333876187,0.1917346938775495,40
1764363735.5720372,184801,1.1681,28.73,-10.025528730825958,0.7717346938775513,40
1764363735.6741414,184901,1.1632,28.59,-10.402957811571566,0.6317346938775508,40
1764363735.7765155,185001,1.1632,27.79,-10.402957811571566,-0.16826530612244994,40
1764363735.879219,185101,1.1681,28.33,-10.025528730825958,0.3717346938775492,40
1764363735.9812531,185201,1.1681,29.1,-10.025528730825958,1.1417346938775523,40
1764363736.0841389,185301,1.1681,28.73,-10.025528730825958,0.7717346938775513,40
1764363736.1867495,185401,1.173,28.95,-9.648099650080335,0.9917346938775502,40
1764363736.288369,185501,1.1681,28.4,-10.025528730825958,0.4417346938775495,40
1764363736.3909016,185601,1.1681,29.14,-10.025528730825958,1.1817346938775515,40
1764363736.4930992,185701,1.1681,28.84,-10.025528730825958,0.8817346938775508,40
1764363736.5956311,185801,1.1681,28.48,-10.025528730825958,0.5217346938775513,40
1764363736.6974657,185901,1.1681,28.59,-10.025528730825958,0.6317346938775508,40
1764363736.8007514,186001,1.1681,29.03,-10.025528730825958,1.071734693877552,40
1764363736.9032135,186101,1.1681,28.33,-10.025528730825958,0.3717346938775492,40
1764363737.0047529,186201,1.1632,27.97,-10.402957811571566,0.011734693877549773,40
1764363737.1067,186301,1.1681,28.88,-10.025528730825958,0.9217346938775499,40
1764363737.2084088,186401,1.1681,27.68,-10.025528730825958,-0.2782653061224494,40
1764363737.3116746,186501,1.1681,29.03,-10.025528730825958,1.071734693877552,40
1764363737.4140046,186601,1.1681,27.82,-10.025528730825958,-0.1382653061224488,40
1764363737.5189624,186701,1.1681,28.51,-10.025528730825958,0.5517346938775525,40
1764363737.6218655,186801,1.1681,28.4,-10.025528730825958,0.4417346938775495,40
1764363737.7248807,186901,1.1681,28.4,-10.025528730825958,0.4417346938775495,41
1764363737.8276165,187001,1.1681,28.62,-10.025528730825958,0.6617346938775519,41
1764363737.9306996,187101,1.1779,28.95,-9.270670569334726,0.9917346938775502,41
1764363738.0332365,187201,1.1681,28.92,-10.025528730825958,0.9617346938775526,41
1764363738.1355476,187301,1.1632,28.15,-10.402957811571566,0.1917346938775495,41
1764363738.2376232,187401,1.1681,28.29,-10.025528730825958,0.33173469387755006,41
1764363738.3402143,187501,1.1681,29.06,-10.025528730825958,1.1017346938775496,41
1764363738.4428003,187601,1.1681,27.75,-10.025528730825958,-0.2082653061224491,41
1764363738.545356,187701,1.1681,28.48,-10.025528730825958,0.5217346938775513,41
1764363738.6477568,187801,1.1681,28.11,-10.025528730825958,0.15173469387755034,41
1764363738.7505221,187901,1.1681,28.81,-10.025528730825958,0.8517346938775496,41
1764363738.8525207,188001,1.173,29.14,-9.648099650080335,1.1817346938775515,41
1764363738.9545302,188101,1.1681,28.62,-10.025528730825958,0.6617346938775519,41
1764363739.0568519,188201,1.1681,28.77,-10.025528730825958,0.8117346938775505,41
1764363739.1592467,188301,1.1681,28.62,-10.025528730825958,0.6617346938775519,42
1764363739.2615676,188401,1.1681,29.14,-10.025528730825958,1.1817346938775515,42
1764363739.3648553,188501,1.1681,27.79,-10.025528730825958,-0.16826530612244994,42
1764363739.467423,188601,1.173,28.11,-9.648099650080335,0.15173469387755034,42
1764363739.5696926,188701,1.173,28.84,-9.648099650080335,0.8817346938775508,42
1764363739.6716156,188801,1.173,28.29,-9.648099650080335,0.33173469387755006,42
1764363739.774549,188901,1.1681,28.44,-10.025528730825958,0.4817346938775522,43
1764363739.8767502,189001,1.173,29.03,-9.648099650080335,1.071734693877552,44
1764363739.9790678,189101,1.1681,28.92,-10.025528730825958,0.9617346938775526,44
1764363740.082211,189201,1.1681,28.59,-10.025528730825958,0.6317346938775508,45
1764363740.1856065,189301,1.1681,28.44,-10.025528730825958,0.4817346938775522,46
1764363740.2881641,189401,1.1681,28.59,-10.025528730825958,0.6317346938775508,46
1764363740.3908663,189501,1.1681,29.06,-10.025528730825958,1.1017346938775496,46
1764363740.49361,189601,1.1632,28.11,-10.402957811571566,0.15173469387755034,46
1764363740.596096,189701,1.1681,28.81,-10.025528730825958,0.8517346938775496,45
1764363740.699306,189801,1.1681,28.59,-10.025528730825958,0.6317346938775508,45
1764363740.8013859,189901,1.1681,27.68,-10.025528730825958,-0.2782653061224494,44
1764363740.903698,190001,1.1779,29.06,-9.270670569334726,1.1017346938775496,43
1764363741.00636,190101,1.1584,28.04,-10.772684258016243,0.08173469387755006,42
1764363741.108803,190201,1.1681,28.95,-10.025528730825958,0.9917346938775502,43
1764363741.211554,190301,1.1681,28.88,-10.025528730825958,0.9217346938775499,43
1764363741.313689,190401,1.1681,28.29,-10.025528730825958,0.33173469387755006,43
1764363741.416603,190501,1.1681,28.92,-10.025528730825958,0.9617346938775526,43
1764363741.5188324,190601,1.1681,28.88,-10.025528730825958,0.9217346938775499,42
1764363741.6210861,190701,1.1681,28.84,-10.025528730825958,0.8817346938775508,42
1764363741.72297,190801,1.1681,28.37,-10.025528730825958,0.4117346938775519,41
1764363741.825249,190901,1.1681,28.62,-10.025528730825958,0.6617346938775519,41
1764363741.9275634,191001,1.173,29.1,-9.648099650080335,1.1417346938775523,41
1764363742.030403,191101,1.1779,29.03,-9.270670569334726,1.071734693877552,41
1764363742.132534,191201,1.1681,28.92,-10.025528730825958,0.9617346938775526,42
1764363742.2344654,191301,1.1681,28.84,-10.025528730825958,0.8817346938775508,42
1764363742.336573,191401,1.1681,28.99,-10.025528730825958,1.0317346938775493,43
1764363742.439657,191501,1.173,28.19,-9.648099650080335,0.2317346938775522,44
1764363742.5427246,191601,1.1681,28.48,-10.025528730825958,0.5217346938775513,45
1764363742.6451647,191701,1.1632,27.93,-10.402957811571566,-0.028265306122449374,45
1764363742.7484322,191801,1.1779,29.03,-9.270670569334726,1.071734693877552,45
1764363742.85095,191901,1.1535,27.82,-11.15011333876187,-0.1382653061224488,46
1764363742.9527633,192001,1.1681,28.04,-10.025528730825958,0.08173469387755006,46
1764363743.0549474,192101,1.1681,28.44,-10.025528730825958,0.4817346938775522,47
1764363743.15714,192201,1.1681,28.51,-10.025528730825958,0.5517346938775525,48
1764363743.2592978,192301,1.1681,28.48,-10.025528730825958,0.5217346938775513,48
1764363743.3616743,192401,1.1681,28.81,-10.025528730825958,0.8517346938775496,48
1764363743.4645064,192501,1.1681,28.73,-10.025528730825958,0.7717346938775513,48
1764363743.566603,192601,1.1584,28.11,-10.772684258016243,0.15173469387755034,48
1764363743.6685724,192701,1.1681,28.7,-10.025528730825958,0.7417346938775502,48
1764363743.7708383,192801,1.1681,28.51,-10.025528730825958,0.5517346938775525,48
1764363743.872938,192901,1.1681,28.48,-10.025528730825958,0.5217346938775513,48
1764363743.9752855,193001,1.1681,28.7,-10.025528730825958,0.7417346938775502,48
1764363744.077564,193101,1.1681,28.95,-10.025528730825958,0.9917346938775502,50
1764363744.1810093,193201,1.173,28.95,-9.648099650080335,0.9917346938775502,51
1764363744.2833967,193301,1.173,28.95,-9.648099650080335,0.9917346938775502,53
1764363744.3855362,193401,1.1681,28.84,-10.025528730825958,0.8817346938775508,54
1764363744.487883,193501,1.1779,29.1,-9.270670569334726,1.1417346938775523,55
1764363744.5903652,193601,1.173,28.88,-9.648099650080335,0.9217346938775499,54
1764363744.6927183,193701,1.1681,27.86,-10.025528730825958,-0.09826530612244966,53
1764363744.7968583,193801,1.1681,27.79,-10.025528730825958,-0.16826530612244994,52
1764363744.8993993,193901,1.1681,28.55,-10.025528730825958,0.5917346938775516,52
1764363745.0019572,194001,1.1681,28.66,-10.025528730825958,0.701734693877551,51
1764363745.1047676,194101,1.173,27.97,-9.648099650080335,0.011734693877549773,51
1764363745.2072766,194201,1.173,28.29,-9.648099650080335,0.33173469387755006,51
1764363745.310115,194301,1.1681,28.84,-10.025528730825958,0.8817346938775508,52
1764363745.4128277,194401,1.1681,28.48,-10.025528730825958,0.5217346938775513,53
1764363745.515591,194501,1.1632,28.4,-10.402957811571566,0.4417346938775495,53
1764363745.618083,194601,1.1681,29.17,-10.025528730825958,1.2117346938775526,54
1764363745.720092,194701,1.1681,27.75,-10.025528730825958,-0.2082653061224491,55
1764363745.822688,194801,1.1681,28.59,-10.025528730825958,0.6317346938775508,55
1764363745.9251816,194901,1.1681,27.79,-10.025528730825958,-0.16826530612244994,55
1764363746.0290577,195001,1.1681,29.03,-10.025528730825958,1.071734693877552,55
1764363746.1311522,195101,1.1681,28.55,-10.025528730825958,0.5917346938775516,55
1764363746.233139,195201,1.1681,29.17,-10.025528730825958,1.2117346938775526,55
1764363746.3354115,195301,1.1681,28.77,-10.025528730825958,0.8117346938775505,56
1764363746.437644,195401,1.1632,28.19,-10.402957811571566,0.2317346938775522,57
1764363746.5404553,195501,1.1681,28.73,-10.025528730825958,0.7717346938775513,58
1764363746.642639,195601,1.1681,27.64,-10.025528730825958,-0.3182653061224485,59
1764363746.7462068,195701,1.1632,28.22,-10.402957811571566,0.2617346938775498,60
1764363746.848518,195801,1.1681,29.03,-10.025528730825958,1.071734693877552,60
1764363746.9508398,195901,1.1584,28.15,-10.772684258016243,0.1917346938775495,60
