timestamp,ecg_raw,ecg_voltage,temperature,ecg_change_percent,temp_change_celsius,bpm
1764362976.9369,9801,1.1828,35.06,-5.079538214865367,-0.060816326530613196,70
1764362977.0390844,9901,1.1828,35.28,-5.079538214865367,0.15918367346938567,70
1764362977.1421003,10001,1.1828,35.37,-5.079538214865367,0.24918367346938197,70
1764362977.2441313,10101,1.1828,34.8,-5.079538214865367,-0.3208163265306183,70
1764362977.3462048,10201,1.1779,35.1,-5.4727663707219545,-0.02081632653061405,70
1764362977.4489386,10301,1.1828,35.37,-5.079538214865367,0.24918367346938197,70
1764362977.5509148,10401,1.1828,35.24,-5.079538214865367,0.11918367346938652,70
1764362977.6532662,10501,1.1828,34.97,-5.079538214865367,-0.1508163265306166,70
1764362977.7551486,10601,1.1828,35.24,-5.079538214865367,0.11918367346938652,70
1764362977.8586752,10701,1.1828,35.02,-5.079538214865367,-0.10081632653061234,70
1764362977.961197,10801,1.1828,34.8,-5.079538214865367,-0.3208163265306183,70
1764362978.0632963,10901,1.1828,35.15,-5.079538214865367,0.02918367346938311,70
1764362978.1656861,11001,1.1828,35.02,-5.079538214865367,-0.10081632653061234,70
1764362978.267946,11101,1.1828,35.33,-5.079538214865367,0.20918367346938282,70
1764362978.3701408,11201,1.1828,34.93,-5.079538214865367,-0.19081632653061575,70
1764362978.4719212,11301,1.1828,35.37,-5.079538214865367,0.24918367346938197,70
1764362978.5741785,11401,1.1877,35.24,-4.686310059008797,0.11918367346938652,70
1764362978.676353,11501,1.1779,34.89,-5.4727663707219545,-0.2308163265306149,70
1764362978.7778895,11601,1.1828,34.89,-5.079538214865367,-0.2308163265306149,70
1764362978.8798144,11701,1.1828,35.1,-5.079538214865367,-0.02081632653061405,70
1764362978.9818587,11801,1.1828,35.33,-5.079538214865367,0.20918367346938282,70
1764362979.0839531,11901,1.1779,35.06,-5.4727663707219545,-0.060816326530613196,70
1764362979.1859212,12001,1.1828,35.06,-5.079538214865367,-0.060816326530613196,70
1764362979.2880778,12101,1.1926,35.28,-4.29308190315221,0.15918367346938567,70
1764362979.393157,12201,1.1828,35.33,-5.079538214865367,0.20918367346938282,70
1764362979.4952855,12301,1.1779,35.46,-5.4727663707219545,0.3391836734693854,70
1764362979.6243334,12401,1.1828,34.8,-5.079538214865367,-0.3208163265306183,70
1764362979.7264843,12501,1.1779,34.93,-5.4727663707219545,-0.19081632653061575,70
1764362979.828363,12601,1.1681,35.06,-6.259222682435111,-0.060816326530613196,70
1764362979.9313636,12701,1.1828,35.37,-5.079538214865367,0.24918367346938197,70
1764362980.0331771,12801,1.1828,34.93,-5.079538214865367,-0.19081632653061575,70
1764362980.1349156,12901,1.1877,35.33,-4.686310059008797,0.20918367346938282,70
1764362980.236714,13001,1.1779,35.37,-5.4727663707219545,0.24918367346938197,70
1764362980.3383613,13101,1.1828,34.89,-5.079538214865367,-0.2308163265306149,70
1764362980.4413671,13201,1.1926,35.37,-4.29308190315221,0.24918367346938197,70
1764362980.5434835,13301,1.1828,35.41,-5.079538214865367,0.2891836734693811,70
1764362980.645544,13401,1.1828,34.93,-5.079538214865367,-0.19081632653061575,70
1764362980.7471938,13501,1.1828,35.15,-5.079538214865367,0.02918367346938311,70
1764362980.8489447,13601,1.1779,34.84,-5.4727663707219545,-0.28081632653061206,70
1764362980.9508138,13701,1.1779,34.89,-5.4727663707219545,-0.2308163265306149,70
1764362981.0526557,13801,1.1779,35.28,-5.4727663707219545,0.15918367346938567,70
1764362981.154841,13901,1.1828,35.02,-5.079538214865367,-0.10081632653061234,70
1764362981.2581136,14001,1.1828,35.06,-5.079538214865367,-0.060816326530613196,70
1764362981.360065,14101,1.1828,35.06,-5.079538214865367,-0.060816326530613196,70
1764362981.4619093,14201,1.1828,35.33,-5.079538214865367,0.20918367346938282,70
1764362981.5640616,14301,1.1828,34.97,-5.079538214865367,-0.1508163265306166,70
1764362981.6661172,14401,1.1779,34.8,-5.4727663707219545,-0.3208163265306183,70
1764362981.7683163,14501,1.1779,34.97,-5.4727663707219545,-0.1508163265306166,44
1764362981.870706,14601,1.1779,35.33,-5.4727663707219545,0.20918367346938282,44
1764362981.972832,14701,1.1779,35.06,-5.4727663707219545,-0.060816326530613196,44
1764362982.074959,14801,1.1779,35.1,-5.4727663707219545,-0.02081632653061405,44
1764362982.1768672,14901,1.1828,35.37,-5.079538214865367,0.24918367346938197,44
1764362982.2789419,15001,1.1779,34.89,-5.4727663707219545,-0.2308163265306149,44
1764362982.3812993,15101,1.1877,35.33,-4.686310059008797,0.20918367346938282,44
1764362982.483592,15201,1.1828,35.33,-5.079538214865367,0.20918367346938282,44
1764362982.585634,15301,1.1779,34.84,-5.4727663707219545,-0.28081632653061206,44
1764362982.6879475,15401,1.1877,35.37,-4.686310059008797,0.24918367346938197,44
1764362982.7896347,15501,1.1828,35.06,-5.079538214865367,-0.060816326530613196,43
1764362982.891489,15601,1.1779,34.89,-5.4727663707219545,-0.2308163265306149,42
1764362982.9932818,15701,1.1877,35.37,-4.686310059008797,0.24918367346938197,42
1764362983.0949986,15801,1.1828,35.24,-5.079538214865367,0.11918367346938652,44
1764362983.1974182,15901,1.1828,35.5,-5.079538214865367,0.37918367346938453,45
1764362983.299553,16001,1.1828,35.46,-5.079538214865367,0.3391836734693854,47
1764362983.402966,16101,1.1779,35.24,-5.4727663707219545,0.11918367346938652,49
1764362983.5058827,16201,1.173,34.89,-5.865994526578524,-0.2308163265306149,51
1764362983.6077094,16301,1.1779,34.97,-5.4727663707219545,-0.1508163265306166,50
1764362983.7097414,16401,1.1828,35.06,-5.079538214865367,-0.060816326530613196,49
1764362983.8115377,16501,1.1828,35.19,-5.079538214865367,0.06918367346938226,48
1764362983.9132288,16601,1.1779,35.02,-5.4727663707219545,-0.10081632653061234,48
1764362984.0149922,16701,1.1828,35.19,-5.079538214865367,0.06918367346938226,47
1764362984.1167285,16801,1.1828,35.1,-5.079538214865367,-0.02081632653061405,48
1764362984.2188792,16901,1.1828,35.41,-5.079538214865367,0.2891836734693811,48
1764362984.3228014,17001,1.1779,34.93,-5.4727663707219545,-0.19081632653061575,49
1764362984.424576,17101,1.1828,35.06,-5.079538214865367,-0.060816326530613196,50
1764362984.526474,17201,1.1828,35.02,-5.079538214865367,-0.10081632653061234,49
1764362984.6282787,17301,1.1828,35.24,-5.079538214865367,0.11918367346938652,48
1764362984.730157,17401,1.1828,34.97,-5.079538214865367,-0.1508163265306166,48
1764362984.8329585,17501,1.1828,35.41,-5.079538214865367,0.2891836734693811,47
1764362984.934969,17601,1.1877,35.37,-4.686310059008797,0.24918367346938197,46
1764362985.0386655,17701,1.1828,35.46,-5.079538214865367,0.3391836734693854,46
1764362985.1405926,17801,1.1779,35.55,-5.4727663707219545,0.4291836734693817,45
1764362985.242567,17901,1.1828,35.5,-5.079538214865367,0.37918367346938453,44
1764362985.344382,18001,1.1926,34.89,-4.29308190315221,-0.2308163265306149,43
1764362985.4468753,18101,1.1828,35.33,-5.079538214865367,0.20918367346938282,43
1764362985.5487938,18201,1.1779,34.89,-5.4727663707219545,-0.2308163265306149,43
1764362985.6509037,18301,1.1828,35.37,-5.079538214865367,0.24918367346938197,43
1764362985.7532477,18401,1.1828,34.93,-5.079538214865367,-0.19081632653061575,43
1764362985.8557293,18501,1.1779,35.06,-5.4727663707219545,-0.060816326530613196,43
1764362985.9579706,18601,1.1828,35.37,-5.079538214865367,0.24918367346938197,43
1764362986.0599668,18701,1.1828,35.41,-5.079538214865367,0.2891836734693811,43
1764362986.1615233,18801,1.1828,35.33,-5.079538214865367,0.20918367346938282,43
1764362986.263414,18901,1.1828,35.24,-5.079538214865367,0.11918367346938652,43
1764362986.365168,19001,1.1828,34.89,-5.079538214865367,-0.2308163265306149,43
1764362986.4670382,19101,1.1828,35.5,-5.079538214865367,0.37918367346938453,44
1764362986.569294,19201,1.1828,35.46,-5.079538214865367,0.3391836734693854,45
1764362986.6714165,19301,1.1779,35.06,-5.4727663707219545,-0.060816326530613196,45
1764362986.7739694,19401,1.1779,35.06,-5.4727663707219545,-0.060816326530613196,45
1764362986.8759627,19501,1.1828,34.93,-5.079538214865367,-0.19081632653061575,45
1764362986.9775279,19601,1.1828,35.15,-5.079538214865367,0.02918367346938311,45
1764362987.079181,19701,1.1828,35.46,-5.079538214865367,0.3391836734693854,45
1764362987.1812427,19801,1.1779,35.37,-5.4727663707219545,0.24918367346938197,45
1764362987.2835782,19901,1.1828,35.46,-5.079538214865367,0.3391836734693854,45
1764362987.3857405,20001,1.1828,35.55,-5.079538214865367,0.4291836734693817,45
1764362987.4876788,20101,1.1828,35.15,-5.079538214865367,0.02918367346938311,45
1764362987.590711,20201,1.1779,35.28,-5.4727663707219545,0.15918367346938567,45
1764362987.6931174,20301,1.1779,35.02,-5.4727663707219545,-0.10081632653061234,45
1764362987.7958002,20401,1.1828,35.02,-5.079538214865367,-0.10081632653061234,45
1764362987.8987365,20501,1.1828,35.5,-5.079538214865367,0.37918367346938453,45
1764362988.001133,20601,1.173,34.97,-5.865994526578524,-0.1508163265306166,45
1764362988.1035182,20701,1.1779,35.02,-5.4727663707219545,-0.10081632653061234,45
1764362988.2062585,20801,1.1828,35.06,-5.079538214865367,-0.060816326530613196,45
1764362988.3087766,20901,1.1828,35.41,-5.079538214865367,0.2891836734693811,45
1764362988.4171326,21001,1.1828,35.02,-5.079538214865367,-0.10081632653061234,45
1764362988.519826,21101,1.1828,34.93,-5.079538214865367,-0.19081632653061575,45
1764362988.6227863,21201,1.1828,35.33,-5.079538214865367,0.20918367346938282,45
1764362988.7248106,21301,1.1828,35.55,-5.079538214865367,0.4291836734693817,45
1764362988.8271167,21401,1.1828,35.37,-5.079538214865367,0.24918367346938197,45
1764362988.9291427,21501,1.1828,35.1,-5.079538214865367,-0.02081632653061405,45
1764362989.0308993,21601,1.1779,35.06,-5.4727663707219545,-0.060816326530613196,45
1764362989.1335158,21701,1.1877,35.46,-4.686310059008797,0.3391836734693854,45
1764362989.2355614,21801,1.173,34.97,-5.865994526578524,-0.1508163265306166,45
1764362989.3375866,21901,1.1779,35.02,-5.4727663707219545,-0.10081632653061234,45
1764362989.4396412,22001,1.1779,34.97,-5.4727663707219545,-0.1508163265306166,45
1764362989.5418186,22101,1.1779,35.33,-5.4727663707219545,0.20918367346938282,45
1764362989.6438239,22201,1.1779,35.02,-5.4727663707219545,-0.10081632653061234,45
1764362989.7462978,22301,1.1779,35.06,-5.4727663707219545,-0.060816326530613196,45
1764362989.8484497,22401,1.1779,34.97,-5.4727663707219545,-0.1508163265306166,45
1764362989.9520528,22501,1.1828,35.55,-5.079538214865367,0.4291836734693817,45
1764362990.0545206,22601,1.1779,35.33,-5.4727663707219545,0.20918367346938282,45
1764362990.1567354,22701,1.1828,35.46,-5.079538214865367,0.3391836734693854,45
1764362990.2586808,22801,1.1779,35.19,-5.4727663707219545,0.06918367346938226,45
1764362990.361019,22901,1.173,35.02,-5.865994526578524,-0.10081632653061234,45
1764362990.4631999,23001,1.1779,35.24,-5.4727663707219545,0.11918367346938652,45
1764362990.5663555,23101,1.1828,35.06,-5.079538214865367,-0.060816326530613196,45
1764362990.6689456,23201,1.1828,35.06,-5.079538214865367,-0.060816326530613196,49
1764362990.7714887,23301,1.1779,35.24,-5.4727663707219545,0.11918367346938652,54
1764362990.8741593,23401,1.1828,35.02,-5.079538214865367,-0.10081632653061234,60
1764362990.9758692,23501,1.1828,35.06,-5.079538214865367,-0.060816326530613196,65
1764362991.0775268,23601,1.1828,35.24,-5.079538214865367,0.11918367346938652,71
1764362991.179478,23701,1.1828,35.55,-5.079538214865367,0.4291836734693817,71
1764362991.2813923,23801,1.1828,35.24,-5.079538214865367,0.11918367346938652,71
1764362991.384849,23901,1.1828,35.64,-5.079538214865367,0.5191836734693851,71
1764362991.4866495,24001,1.1828,35.24,-5.079538214865367,0.11918367346938652,71
1764362991.5884876,24101,1.1877,35.55,-4.686310059008797,0.4291836734693817,71
1764362991.6905332,24201,1.1779,35.41,-5.4727663707219545,0.2891836734693811,71
1764362991.7926052,24301,1.1828,35.37,-5.079538214865367,0.24918367346938197,71
1764362991.8947868,24401,1.1828,35.02,-5.079538214865367,-0.10081632653061234,71
1764362991.9969997,24501,1.1828,35.41,-5.079538214865367,0.2891836734693811,71
1764362992.0993927,24601,1.1828,35.15,-5.079538214865367,0.02918367346938311,71
1764362992.2026622,24701,1.1828,35.5,-5.079538214865367,0.37918367346938453,71
1764362992.3048742,24801,1.173,35.06,-5.865994526578524,-0.060816326530613196,71
1764362992.407407,24901,1.1779,35.06,-5.4727663707219545,-0.060816326530613196,71
1764362992.5091307,25001,1.1779,34.89,-5.4727663707219545,-0.2308163265306149,71
1764362992.6112823,25101,1.1828,35.1,-5.079538214865367,-0.02081632653061405,71
1764362992.7135556,25201,1.1779,35.06,-5.4727663707219545,-0.060816326530613196,71
1764362992.816087,25301,1.1779,35.15,-5.4727663707219545,0.02918367346938311,71
1764362992.918484,25401,1.1828,35.46,-5.079538214865367,0.3391836734693854,71
1764362993.0205803,25501,1.173,34.89,-5.865994526578524,-0.2308163265306149,71
1764362993.1239164,25601,1.1779,34.93,-5.4727663707219545,-0.19081632653061575,69
1764362993.225415,25701,1.1779,35.37,-5.4727663707219545,0.24918367346938197,67
1764362993.3277225,25801,1.1779,35.24,-5.4727663707219545,0.11918367346938652,66
1764362993.4299116,25901,1.1779,35.06,-5.4727663707219545,-0.060816326530613196,64
1764362993.5323956,26001,1.1877,35.55,-4.686310059008797,0.4291836734693817,65
1764362993.6343803,26101,1.1828,35.15,-5.079538214865367,0.02918367346938311,65
1764362993.7365608,26201,1.1779,35.15,-5.4727663707219545,0.02918367346938311,65
1764362993.839403,26301,1.1779,35.41,-5.4727663707219545,0.2891836734693811,66
1764362993.9413116,26401,1.1779,35.15,-5.4727663707219545,0.02918367346938311,67
1764362994.0431085,26501,1.1828,35.5,-5.079538214865367,0.37918367346938453,69
1764362994.1452498,26601,1.1779,35.1,-5.4727663707219545,-0.02081632653061405,71
1764362994.248144,26701,1.1779,34.97,-5.4727663707219545,-0.1508163265306166,73
1764362994.3510797,26801,1.173,35.1,-5.865994526578524,-0.02081632653061405,73
1764362994.453244,26901,1.1779,35.41,-5.4727663707219545,0.2891836734693811,74
1764362994.5559568,27001,1.1779,35.06,-5.4727663707219545,-0.060816326530613196,75
1764362994.6593454,27101,1.1779,35.55,-5.4727663707219545,0.4291836734693817,75
1764362994.7611845,27201,1.1828,35.5,-5.079538214865367,0.37918367346938453,75
1764362994.8637152,27301,1.1877,35.64,-4.686310059008797,0.5191836734693851,75
1764362994.967758,27401,1.1779,35.15,-5.4727663707219545,0.02918367346938311,74
1764362995.0699668,27501,1.173,35.06,-5.865994526578524,-0.060816326530613196,73
1764362995.1724408,27601,1.1779,35.15,-5.4727663707219545,0.02918367346938311,72
1764362995.2741146,27701,1.1779,35.1,-5.4727663707219545,-0.02081632653061405,71
1764362995.3768394,27801,1.173,34.97,-5.865994526578524,-0.1508163265306166,70
1764362995.478535,27901,1.173,35.28,-5.865994526578524,0.15918367346938567,71
1764362995.5815706,28001,1.1779,35.64,-5.4727663707219545,0.5191836734693851,71
1764362995.6838212,28101,1.173,35.1,-5.865994526578524,-0.02081632653061405,72
1764362995.7860644,28201,1.173,35.37,-5.865994526578524,0.24918367346938197,72
1764362995.8877788,28301,1.1779,35.64,-5.4727663707219545,0.5191836734693851,72
1764362995.989394,28401,1.1779,35.5,-5.4727663707219545,0.37918367346938453,72
1764362996.0912652,28501,1.173,35.06,-5.865994526578524,-0.060816326530613196,71
1764362996.1932874,28601,1.1779,35.55,-5.4727663707219545,0.4291836734693817,70
1764362996.2952852,28701,1.1779,35.24,-5.4727663707219545,0.11918367346938652,70
1764362996.398232,28801,1.1779,35.46,-5.4727663707219545,0.3391836734693854,70
1764362996.5009048,28901,1.1779,35.64,-5.4727663707219545,0.5191836734693851,70
1764362996.6035705,29001,1.1779,35.37,-5.4727663707219545,0.24918367346938197,70
1764362996.705337,29101,1.1779,35.64,-5.4727663707219545,0.5191836734693851,70
1764362996.8073144,29201,1.1779,35.28,-5.4727663707219545,0.15918367346938567,70
1764362996.9096086,29301,1.173,35.41,-5.865994526578524,0.2891836734693811,70
1764362997.0115113,29401,1.1779,35.59,-5.4727663707219545,0.46918367346938794,68
1764362997.1139219,29501,1.1779,35.55,-5.4727663707219545,0.4291836734693817,66
1764362997.216782,29601,1.1584,34.55,-7.037653929743016,-0.5708163265306183,64
1764362997.3190339,29701,1.173,35.46,-5.865994526578524,0.3391836734693854,62
1764362997.4213436,29801,1.173,35.46,-5.865994526578524,0.3391836734693854,62
1764362997.523562,29901,1.173,35.06,-5.865994526578524,-0.060816326530613196,64
1764362997.6256793,30001,1.173,35.02,-5.865994526578524,-0.10081632653061234,66
1764362997.728126,30101,1.1779,35.15,-5.4727663707219545,0.02918367346938311,67
1764362997.830055,30201,1.1779,35.64,-5.4727663707219545,0.5191836734693851,69
1764362997.9327772,30301,1.1779,35.55,-5.4727663707219545,0.4291836734693817,69
1764362998.0347474,30401,1.1779,35.37,-5.4727663707219545,0.24918367346938197,68
1764362998.1367972,30501,1.1779,35.28,-5.4727663707219545,0.15918367346938567,68
1764362998.2390196,30601,1.1681,35.24,-6.259222682435111,0.11918367346938652,68
1764362998.341097,30701,1.173,35.41,-5.865994526578524,0.2891836734693811,67
1764362998.4434676,30801,1.1779,35.68,-5.4727663707219545,0.5591836734693842,66
1764362998.545897,30901,1.1779,35.15,-5.4727663707219545,0.02918367346938311,65
1764362998.6488826,31001,1.173,35.33,-5.865994526578524,0.20918367346938282,64
1764362998.751009,31101,1.173,35.1,-5.865994526578524,-0.02081632653061405,64
1764362998.853142,31201,1.1779,35.64,-5.4727663707219545,0.5191836734693851,64
1764362998.955507,31301,1.173,35.46,-5.865994526578524,0.3391836734693854,64
1764362999.0583382,31401,1.173,35.73,-5.865994526578524,0.6091836734693814,64
1764362999.162421,31501,1.1828,35.55,-5.079538214865367,0.4291836734693817,64
1764362999.2646408,31601,1.1779,35.5,-5.4727663707219545,0.37918367346938453,59
1764362999.3666203,31701,1.173,35.37,-5.865994526578524,0.24918367346938197,54
1764362999.4688876,31801,1.173,35.15,-5.865994526578524,0.02918367346938311,49
1764362999.5704927,31901,1.173,35.19,-5.865994526578524,0.06918367346938226,44
1764362999.6728492,32001,1.173,35.33,-5.865994526578524,0.20918367346938282,40
1764362999.7748466,32101,1.173,35.24,-5.865994526578524,0.11918367346938652,40
1764362999.8777616,32201,1.1779,35.68,-5.4727663707219545,0.5591836734693842,40
1764362999.9803638,32301,1.173,35.1,-5.865994526578524,-0.02081632653061405,40
1764363000.0826597,32401,1.1632,34.97,-6.6524508382916805,-0.1508163265306166,40
1764363000.184382,32501,1.173,35.64,-5.865994526578524,0.5191836734693851,40
1764363000.2867093,32601,1.1681,35.5,-6.259222682435111,0.37918367346938453,40
1764363000.389803,32701,1.173,35.73,-5.865994526578524,0.6091836734693814,40
1764363000.4921627,32801,1.173,35.5,-5.865994526578524,0.37918367346938453,40
1764363000.5952425,32901,1.1681,35.15,-6.259222682435111,0.02918367346938311,40
1764363000.6977108,33001,1.1681,35.28,-6.259222682435111,0.15918367346938567,40
1764363000.7995286,33101,1.1681,35.28,-6.259222682435111,0.15918367346938567,40
1764363000.9020333,33201,1.173,35.24,-5.865994526578524,0.11918367346938652,40
1764363001.004311,33301,1.1681,35.68,-6.259222682435111,0.5591836734693842,40
1764363001.1063938,33401,1.173,35.64,-5.865994526578524,0.5191836734693851,40
1764363001.208381,33501,1.1681,35.55,-6.259222682435111,0.4291836734693817,40
1764363001.3110418,33601,1.173,35.24,-5.865994526578524,0.11918367346938652,40
1764363001.4133174,33701,1.173,35.37,-5.865994526578524,0.24918367346938197,40
1764363001.515002,33801,1.173,35.15,-5.865994526578524,0.02918367346938311,40
1764363001.617364,33901,1.173,35.64,-5.865994526578524,0.5191836734693851,40
1764363001.7193456,34001,1.173,35.46,-5.865994526578524,0.3391836734693854,40
1764363001.8212252,34101,1.173,35.55,-5.865994526578524,0.4291836734693817,40
1764363001.9233372,34201,1.173,35.37,-5.865994526578524,0.24918367346938197,40
1764363002.0267558,34301,1.173,35.1,-5.865994526578524,-0.02081632653061405,40
1764363002.1297626,34401,1.173,35.28,-5.865994526578524,0.15918367346938567,44
1764363002.2319555,34501,1.1681,35.46,-6.259222682435111,0.3391836734693854,48
1764363002.3338885,34601,1.173,35.41,-5.865994526578524,0.2891836734693811,53
1764363002.4358435,34701,1.173,35.37,-5.865994526578524,0.24918367346938197,57
1764363002.5376225,34801,1.173,35.5,-5.865994526578524,0.37918367346938453,61
1764363002.6398163,34901,1.173,35.41,-5.865994526578524,0.2891836734693811,61
1764363002.7424545,35001,1.173,35.46,-5.865994526578524,0.3391836734693854,61
1764363002.84584,35101,1.173,35.46,-5.865994526578524,0.3391836734693854,61
1764363002.9482934,35201,1.173,35.41,-5.865994526578524,0.2891836734693811,61
1764363003.0504,35301,1.173,35.5,-5.865994526578524,0.37918367346938453,61
1764363003.1524668,35401,1.173,35.46,-5.865994526578524,0.3391836734693854,60
1764363003.2542472,35501,1.1779,35.55,-5.4727663707219545,0.4291836734693817,59
1764363003.3565898,35601,1.173,35.19,-5.865994526578524,0.06918367346938226,56
1764363003.4589286,35701,1.173,35.73,-5.865994526578524,0.6091836734693814,52
1764363003.5617592,35801,1.1779,35.73,-5.4727663707219545,0.6091836734693814,49
1764363003.663525,35901,1.1779,35.59,-5.4727663707219545,0.46918367346938794,47
1764363003.7658215,36001,1.1828,35.64,-5.079538214865367,0.5191836734693851,45
1764363003.8681405,36101,1.173,35.73,-5.865994526578524,0.6091836734693814,45
1764363003.9704049,36201,1.173,35.73,-5.865994526578524,0.6091836734693814,45
1764363004.0723186,36301,1.1779,35.73,-5.4727663707219545,0.6091836734693814,45
1764363004.174478,36401,1.1779,35.15,-5.4727663707219545,0.02918367346938311,44
1764363004.2764697,36501,1.173,35.15,-5.865994526578524,0.02918367346938311,43
1764363004.3785698,36601,1.173,35.19,-5.865994526578524,0.06918367346938226,42
1764363004.4806182,36701,1.1828,35.64,-5.079538214865367,0.5191836734693851,41
1764363004.582909,36801,1.173,35.64,-5.865994526578524,0.5191836734693851,42
1764363004.6849148,36901,1.173,35.68,-5.865994526578524,0.5591836734693842,42
1764363004.7869275,37001,1.173,35.77,-5.865994526578524,0.6491836734693877,43
1764363004.8893583,37101,1.1828,35.68,-5.079538214865367,0.5591836734693842,44
1764363004.9919925,37201,1.173,35.37,-5.865994526578524,0.24918367346938197,44
1764363005.0944602,37301,1.1681,35.24,-6.259222682435111,0.11918367346938652,44
1764363005.1968255,37401,1.173,35.24,-5.865994526578524,0.11918367346938652,44
1764363005.298869,37501,1.1779,35.46,-5.4727663707219545,0.3391836734693854,43
1764363005.4015124,37601,1.1779,35.73,-5.4727663707219545,0.6091836734693814,42
1764363005.5038083,37701,1.1779,35.77,-5.4727663707219545,0.6491836734693877,42
1764363005.6063373,37801,1.1779,35.41,-5.4727663707219545,0.2891836734693811,41
1764363005.708452,37901,1.1779,35.24,-5.4727663707219545,0.11918367346938652,40
1764363005.8102384,38001,1.1779,35.68,-5.4727663707219545,0.5591836734693842,40
1764363005.911974,38101,1.173,35.55,-5.865994526578524,0.4291836734693817,41
1764363006.0138319,38201,1.1779,35.41,-5.4727663707219545,0.2891836734693811,42
1764363006.115732,38301,1.1779,35.82,-5.4727663707219545,0.6991836734693848,42
1764363006.2180715,38401,1.1779,35.15,-5.4727663707219545,0.02918367346938311,43
1764363006.3198729,38501,1.1779,35.77,-5.4727663707219545,0.6491836734693877,43
1764363006.421932,38601,1.173,35.41,-5.865994526578524,0.2891836734693811,44
1764363006.52448,38701,1.1779,35.28,-5.4727663707219545,0.15918367346938567,44
1764363006.6269698,38801,1.1779,35.55,-5.4727663707219545,0.4291836734693817,45
1764363006.7298427,38901,1.1681,35.24,-6.259222682435111,0.11918367346938652,46
1764363006.8316708,39001,1.1779,35.59,-5.4727663707219545,0.46918367346938794,47
1764363006.9338214,39101,1.1779,35.24,-5.4727663707219545,0.11918367346938652,47
1764363007.035794,39201,1.1779,35.55,-5.4727663707219545,0.4291836734693817,47
1764363007.137677,39301,1.173,35.19,-5.865994526578524,0.06918367346938226,46
1764363007.2403958,39401,1.1779,35.64,-5.4727663707219545,0.5191836734693851,46
1764363007.34273,39501,1.1779,35.59,-5.4727663707219545,0.46918367346938794,46
1764363007.4450264,39601,1.173,35.19,-5.865994526578524,0.06918367346938226,46
1764363007.5478652,39701,1.1779,35.41,-5.4727663707219545,0.2891836734693811,47
1764363007.650032,39801,1.173,35.19,-5.865994526578524,0.06918367346938226,47
1764363007.7521327,39901,1.1828,35.73,-5.079538214865367,0.6091836734693814,48
1764363007.8544521,40001,1.1779,35.82,-5.4727663707219545,0.6991836734693848,49
1764363007.9578338,40101,1.1779,35.73,-5.4727663707219545,0.6091836734693814,50
1764363008.0609212,40201,1.1779,35.73,-5.4727663707219545,0.6091836734693814,50
1764363008.162871,40301,1.1779,35.37,-5.4727663707219545,0.24918367346938197,51
1764363008.2650054,40401,1.1779,35.64,-5.4727663707219545,0.5191836734693851,52
1764363008.367128,40501,1.1779,35.37,-5.4727663707219545,0.24918367346938197,52
1764363008.4692762,40601,1.1779,35.73,-5.4727663707219545,0.6091836734693814,52
1764363008.5723894,40701,1.1828,35.68,-5.079538214865367,0.5591836734693842,52
1764363008.6754925,40801,1.1779,35.82,-5.4727663707219545,0.6991836734693848,52
1764363008.7779834,40901,1.173,35.37,-5.865994526578524,0.24918367346938197,51
1764363008.8799477,41001,1.1779,35.59,-5.4727663707219545,0.46918367346938794,51
1764363008.9816873,41101,1.1779,35.77,-5.4727663707219545,0.6491836734693877,51
1764363009.0841174,41201,1.1779,35.33,-5.4727663707219545,0.20918367346938282,52
1764363009.1859152,41301,1.1779,35.73,-5.4727663707219545,0.6091836734693814,52
1764363009.2879734,41401,1.1779,35.46,-5.4727663707219545,0.3391836734693854,50
1764363009.390325,41501,1.1828,35.68,-5.079538214865367,0.5591836734693842,48
1764363009.4925447,41601,1.173,35.46,-5.865994526578524,0.3391836734693854,46
1764363009.595268,41701,1.173,35.46,-5.865994526578524,0.3391836734693854,45
1764363009.6981473,41801,1.1681,35.37,-6.259222682435111,0.24918367346938197,44
1764363009.8009377,41901,1.1779,35.33,-5.4727663707219545,0.20918367346938282,44
1764363009.9034095,42001,1.173,35.28,-5.865994526578524,0.15918367346938567,45
1764363010.0062678,42101,1.173,35.19,-5.865994526578524,0.06918367346938226,51
1764363010.1093225,42201,1.1779,35.82,-5.4727663707219545,0.6991836734693848,57
1764363010.2112424,42301,1.173,35.59,-5.865994526578524,0.46918367346938794,64
1764363010.313097,42401,1.173,35.24,-5.865994526578524,0.11918367346938652,70
1764363010.4154043,42501,1.1779,35.82,-5.4727663707219545,0.6991836734693848,76
1764363010.5173264,42601,1.1828,35.68,-5.079538214865367,0.5591836734693842,77
1764363010.6193373,42701,1.173,35.59,-5.865994526578524,0.46918367346938794,76
1764363010.8222682,152001,1.1681,35.95,-6.259222682435111,0.8291836734693874,75
1764363010.924412,152101,1.173,35.82,-5.865994526578524,0.6991836734693848,74
1764363011.0270977,152201,1.173,36.22,-5.865994526578524,1.0991836734693834,73
1764363011.1293023,152301,1.173,35.82,-5.865994526578524,0.6991836734693848,72
1764363011.3331454,152001,1.1681,35.95,-6.259222682435111,0.8291836734693874,72
1764363011.4354978,152101,1.173,35.82,-5.865994526578524,0.6991836734693848,72
1764363011.5389235,152201,1.173,36.22,-5.865994526578524,1.0991836734693834,72
1764363011.64229,152301,1.173,35.82,-5.865994526578524,0.6991836734693848,72
1764363011.74508,152401,1.1681,36.27,-6.259222682435111,1.1491836734693877,72
1764363011.8471766,152501,1.173,35.82,-5.865994526578524,0.6991836734693848,72
1764363011.9492428,152601,1.1681,36.4,-6.259222682435111,1.279183673469383,72
1764363012.0510967,152701,1.1681,35.95,-6.259222682435111,0.8291836734693874,72
1764363012.1536405,152801,1.1681,35.86,-6.259222682435111,0.739183673469384,72
1764363012.256418,152901,1.1681,35.91,-6.259222682435111,0.7891836734693811,72
1764363012.3583753,153001,1.173,36.45,-5.865994526578524,1.3291836734693874,72
1764363012.4628453,153101,1.173,35.86,-5.865994526578524,0.739183673469384,72
1764363012.5647202,153201,1.173,36.31,-5.865994526578524,1.1891836734693868,72
1764363012.6674466,153301,1.173,35.91,-5.865994526578524,0.7891836734693811,72
1764363012.7697985,153401,1.173,35.82,-5.865994526578524,0.6991836734693848,72
1764363012.872231,153501,1.1681,35.86,-6.259222682435111,0.739183673469384,72
1764363012.9747243,153601,1.1681,36.4,-6.259222682435111,1.279183673469383,72
1764363013.0769472,153701,1.1681,35.95,-6.259222682435111,0.8291836734693874,72
1764363013.1795008,153801,1.1681,35.86,-6.259222682435111,0.739183673469384,72
1764363013.2813773,153901,1.1681,36.04,-6.259222682435111,0.9191836734693837,72
1764363013.3842573,154001,1.1681,36.09,-6.259222682435111,0.9691836734693879,72
1764363013.4874914,154101,1.1681,36.31,-6.259222682435111,1.1891836734693868,72
1764363013.5899193,154201,1.1681,36.22,-6.259222682435111,1.0991836734693834,72
1764363013.692367,154301,1.1632,36.09,-6.6524508382916805,0.9691836734693879,72
1764363013.7944837,154401,1.1681,36.27,-6.259222682435111,1.1491836734693877,72
1764363013.896462,154501,1.1681,35.95,-6.259222682435111,0.8291836734693874,72
1764363013.9986758,154601,1.173,35.86,-5.865994526578524,0.739183673469384,72
1764363014.1010919,154701,1.1681,36.22,-6.259222682435111,1.0991836734693834,72
1764363014.2035341,154801,1.1681,35.86,-6.259222682435111,0.739183673469384,72
1764363014.3063266,154901,1.1681,36.45,-6.259222682435111,1.3291836734693874,71
1764363014.4086661,155001,1.1681,35.95,-6.259222682435111,0.8291836734693874,69
1764363014.510961,155101,1.1681,36.09,-6.259222682435111,0.9691836734693879,67
1764363014.6135235,155201,1.173,36.31,-5.865994526578524,1.1891836734693868,65
1764363014.716015,155301,1.173,35.91,-5.865994526578524,0.7891836734693811,63
1764363014.8199942,155401,1.173,36.09,-5.865994526578524,0.9691836734693879,64
1764363014.9226336,155501,1.173,35.95,-5.865994526578524,0.8291836734693874,67
1764363015.024543,155601,1.173,36.22,-5.865994526578524,1.0991836734693834,70
1764363015.1266615,155701,1.1681,36.22,-6.259222682435111,1.0991836734693834,73
1764363015.2288601,155801,1.1681,36.22,-6.259222682435111,1.0991836734693834,75
1764363015.3308544,155901,1.1681,35.95,-6.259222682435111,0.8291836734693874,75
1764363015.4331195,156001,1.173,36.13,-5.865994526578524,1.009183673469387,74
1764363015.5356498,156101,1.173,35.86,-5.865994526578524,0.739183673469384,74
1764363015.637616,156201,1.173,36.27,-5.865994526578524,1.1491836734693877,72
1764363015.7393415,156301,1.173,36.04,-5.865994526578524,0.9191836734693837,71
1764363015.8418427,156401,1.1681,36.0,-6.259222682435111,0.8791836734693845,71
1764363015.943937,156501,1.1681,35.91,-6.259222682435111,0.7891836734693811,70
1764363016.0463667,156601,1.173,36.45,-5.865994526578524,1.3291836734693874,69
1764363016.1497831,156701,1.173,35.91,-5.865994526578524,0.7891836734693811,69
1764363016.25224,156801,1.173,35.86,-5.865994526578524,0.739183673469384,69
1764363016.3541005,156901,1.1681,36.27,-6.259222682435111,1.1491836734693877,69
1764363016.4563613,157001,1.1681,36.04,-6.259222682435111,0.9191836734693837,69
1764363016.558823,157101,1.1681,35.86,-6.259222682435111,0.739183673469384,69
1764363016.660736,157201,1.1681,35.95,-6.259222682435111,0.8291836734693874,68
1764363016.7628453,157301,1.173,36.36,-5.865994526578524,1.239183673469384,68
1764363016.865291,157401,1.1681,36.04,-6.259222682435111,0.9191836734693837,68
1764363016.9686818,157501,1.1632,35.86,-6.6524508382916805,0.739183673469384,68
1764363017.0711508,157601,1.1681,36.31,-6.259222682435111,1.1891836734693868,68
1764363017.1729753,157701,1.1681,36.45,-6.259222682435111,1.3291836734693874,68
1764363017.277558,157801,1.173,35.95,-5.865994526578524,0.8291836734693874,67
1764363017.3797169,157901,1.173,36.27,-5.865994526578524,1.1491836734693877,67
1764363017.4820783,158001,1.173,36.09,-5.865994526578524,0.9691836734693879,67
1764363017.5872195,158101,1.173,36.49,-5.865994526578524,1.3691836734693865,66
1764363017.6893494,158201,1.173,35.86,-5.865994526578524,0.739183673469384,66
1764363017.7919493,158301,1.173,35.95,-5.865994526578524,0.8291836734693874,66
1764363017.8938432,158401,1.173,36.45,-5.865994526578524,1.3291836734693874,66
1764363017.996463,158501,1.173,36.22,-5.865994526578524,1.0991836734693834,66
1764363018.098581,158601,1.173,36.36,-5.865994526578524,1.239183673469384,65
1764363018.201244,158701,1.1584,35.68,-7.037653929743016,0.5591836734693842,65
1764363018.3050225,158801,1.1681,35.95,-6.259222682435111,0.8291836734693874,64
1764363018.4072819,158901,1.173,35.86,-5.865994526578524,0.739183673469384,63
1764363018.5096598,159001,1.173,36.36,-5.865994526578524,1.239183673469384,63
1764363018.6121037,159101,1.1681,35.91,-6.259222682435111,0.7891836734693811,63
1764363018.7144532,159201,1.173,36.4,-5.865994526578524,1.279183673469383,63
1764363018.81725,159301,1.1632,36.18,-6.6524508382916805,1.0591836734693842,63
1764363018.9204433,159401,1.1681,36.22,-6.259222682435111,1.0991836734693834,63
1764363019.022578,159501,1.1681,36.0,-6.259222682435111,0.8791836734693845,63
1764363019.1247256,159601,1.1681,36.13,-6.259222682435111,1.009183673469387,63
1764363019.2267222,159701,1.1681,36.27,-6.259222682435111,1.1491836734693877,63
1764363019.3284621,159801,1.1779,36.31,-5.4727663707219545,1.1891836734693868,63
1764363019.431359,159901,1.173,35.86,-5.865994526578524,0.739183673469384,63
1764363019.5352974,160001,1.1681,36.04,-6.259222682435111,0.9191836734693837,64
1764363019.6377563,160101,1.1681,36.13,-6.259222682435111,1.009183673469387,65
1764363019.7399735,160201,1.1681,36.13,-6.259222682435111,1.009183673469387,67
1764363019.8425288,160301,1.173,36.31,-5.865994526578524,1.1891836734693868,69
1764363019.9449477,160401,1.173,36.36,-5.865994526578524,1.239183673469384,71
1764363020.0475285,160501,1.173,35.86,-5.865994526578524,0.739183673469384,71
1764363020.1510155,160601,1.1681,36.18,-6.259222682435111,1.0591836734693842,72
1764363020.2537804,160701,1.1681,36.04,-6.259222682435111,0.9191836734693837,72
1764363020.355836,160801,1.1632,35.91,-6.6524508382916805,0.7891836734693811,73
1764363020.4581492,160901,1.1681,35.91,-6.259222682435111,0.7891836734693811,73
1764363020.560114,161001,1.173,36.13,-5.865994526578524,1.009183673469387,73
1764363020.6626976,161101,1.173,36.31,-5.865994526578524,1.1891836734693868,73
1764363020.765798,161201,1.173,36.13,-5.865994526578524,1.009183673469387,73
1764363020.8685937,161301,1.173,36.49,-5.865994526578524,1.3691836734693865,74
1764363020.9707618,161401,1.1681,36.09,-6.259222682435111,0.9691836734693879,74
1764363021.072566,161501,1.173,36.45,-5.865994526578524,1.3291836734693874,75
1764363021.1750414,161601,1.173,35.91,-5.865994526578524,0.7891836734693811,76
1764363021.2773829,161701,1.173,36.0,-5.865994526578524,0.8791836734693845,77
1764363021.3796618,161801,1.173,36.4,-5.865994526578524,1.279183673469383,77
1764363021.4832954,161901,1.173,35.86,-5.865994526578524,0.739183673469384,76
1764363021.5855844,162001,1.1681,36.0,-6.259222682435111,0.8791836734693845,77
1764363021.687488,162101,1.1681,36.31,-6.259222682435111,1.1891836734693868,77
1764363021.7902634,162201,1.173,36.36,-5.865994526578524,1.239183673469384,77
1764363021.8924692,162301,1.1681,36.22,-6.259222682435111,1.0991836734693834,77
1764363021.9948056,162401,1.173,36.4,-5.865994526578524,1.279183673469383,77
1764363022.0972462,162501,1.1632,35.91,-6.6524508382916805,0.7891836734693811,76
1764363022.1992357,162601,1.173,36.45,-5.865994526578524,1.3291836734693874,75
1764363022.3009806,162701,1.173,35.91,-5.865994526578524,0.7891836734693811,74
1764363022.4031787,162801,1.173,35.95,-5.865994526578524,0.8291836734693874,73
1764363022.5069854,162901,1.1779,36.36,-5.4727663707219545,1.239183673469384,75
1764363022.6090574,163001,1.173,36.09,-5.865994526578524,0.9691836734693879,76
1764363022.711293,163101,1.173,35.91,-5.865994526578524,0.7891836734693811,78
1764363022.8148005,163201,1.173,36.09,-5.865994526578524,0.9691836734693879,79
1764363022.917528,163301,1.1779,36.36,-5.4727663707219545,1.239183673469384,80
1764363023.019708,163401,1.173,36.22,-5.865994526578524,1.0991836734693834,80
1764363023.121874,163501,1.173,36.45,-5.865994526578524,1.3291836734693874,80
1764363023.2241526,163601,1.173,36.49,-5.865994526578524,1.3691836734693865,81
1764363023.3264804,163701,1.173,36.13,-5.865994526578524,1.009183673469387,82
1764363023.4285727,163801,1.173,36.18,-5.865994526578524,1.0591836734693842,82
1764363023.5313401,163901,1.173,36.54,-5.865994526578524,1.4191836734693837,82
1764363023.633939,164001,1.1681,36.18,-6.259222682435111,1.0591836734693842,82
1764363023.7359693,164101,1.1681,36.27,-6.259222682435111,1.1491836734693877,82
1764363023.8395073,164201,1.173,35.91,-5.865994526578524,0.7891836734693811,82
1764363023.941421,164301,1.173,36.22,-5.865994526578524,1.0991836734693834,82
1764363024.0430853,164401,1.1681,36.27,-6.259222682435111,1.1491836734693877,82
1764363024.1452243,164501,1.173,36.31,-5.865994526578524,1.1891836734693868,80
1764363024.2479231,164601,1.1779,36.36,-5.4727663707219545,1.239183673469384,79
1764363024.3498187,164701,1.173,36.4,-5.865994526578524,1.279183673469383,77
1764363024.4518027,164801,1.173,36.54,-5.865994526578524,1.4191836734693837,74
1764363024.5536995,164901,1.1681,36.22,-6.259222682435111,1.0991836734693834,73
1764363024.6557918,165001,1.1681,36.4,-6.259222682435111,1.279183673469383,72
1764363024.757748,165101,1.1681,36.0,-6.259222682435111,0.8791836734693845,72
1764363024.860302,165201,1.1681,36.31,-6.259222682435111,1.1891836734693868,74
1764363024.98968,165301,1.173,36.4,-5.865994526578524,1.279183673469383,75
1764363025.0920706,165401,1.1681,36.22,-6.259222682435111,1.0991836734693834,75
1764363025.194261,165501,1.1681,36.18,-6.259222682435111,1.0591836734693842,75
1764363025.2970788,165601,1.1681,36.0,-6.259222682435111,0.8791836734693845,74
1764363025.400238,165701,1.1681,35.91,-6.259222682435111,0.7891836734693811,72
1764363025.502527,165801,1.173,36.31,-5.865994526578524,1.1891836734693868,71
1764363025.604728,165901,1.173,35.91,-5.865994526578524,0.7891836734693811,72
1764363025.70717,166001,1.173,36.45,-5.865994526578524,1.3291836734693874,73
1764363025.8097193,166101,1.1779,36.36,-5.4727663707219545,1.239183673469384,74
1764363025.91278,166201,1.173,35.95,-5.865994526578524,0.8291836734693874,75
1764363026.0159519,166301,1.1681,36.04,-6.259222682435111,0.9191836734693837,76
1764363026.118305,166401,1.173,35.95,-5.865994526578524,0.8291836734693874,76
1764363026.220774,166501,1.173,36.09,-5.865994526578524,0.9691836734693879,74
1764363026.3225758,166601,1.173,35.91,-5.865994526578524,0.7891836734693811,73
1764363026.4240587,166701,1.173,36.04,-5.865994526578524,0.9191836734693837,71
1764363026.5258794,166801,1.173,35.91,-5.865994526578524,0.7891836734693811,69
1764363026.627982,166901,1.1681,35.95,-6.259222682435111,0.8291836734693874,68
1764363026.7299707,167001,1.173,36.18,-5.865994526578524,1.0591836734693842,68
1764363026.8321497,167101,1.173,36.27,-5.865994526578524,1.1491836734693877,68
1764363026.9341586,167201,1.173,35.86,-5.865994526578524,0.739183673469384,68
1764363027.0360215,167301,1.173,36.04,-5.865994526578524,0.9191836734693837,68
1764363027.1376314,167401,1.1681,36.45,-6.259222682435111,1.3291836734693874,68
1764363027.239545,167501,1.173,36.27,-5.865994526578524,1.1491836734693877,67
1764363027.3428433,167601,1.173,36.31,-5.865994526578524,1.1891836734693868,67
1764363027.4457562,167701,1.1632,36.18,-6.6524508382916805,1.0591836734693842,67
1764363027.5488667,167801,1.173,35.95,-5.865994526578524,0.8291836734693874,66
1764363027.650608,167901,1.1681,36.13,-6.259222682435111,1.009183673469387,66
1764363027.7524974,168001,1.173,35.91,-5.865994526578524,0.7891836734693811,67
1764363027.8550065,168101,1.173,35.95,-5.865994526578524,0.8291836734693874,67
1764363027.9574714,168201,1.173,36.31,-5.865994526578524,1.1891836734693868,68
1764363028.059901,168301,1.1779,36.31,-5.4727663707219545,1.1891836734693868,69
1764363028.1632152,168401,1.1779,36.49,-5.4727663707219545,1.3691836734693865,69
1764363028.2659533,168501,1.1779,36.0,-5.4727663707219545,0.8791836734693845,69
1764363028.368124,168601,1.173,36.18,-5.865994526578524,1.0591836734693842,69
1764363028.4700756,168701,1.173,36.13,-5.865994526578524,1.009183673469387,69
1764363028.5719764,168801,1.173,36.31,-5.865994526578524,1.1891836734693868,69
1764363028.673963,168901,1.1779,36.22,-5.4727663707219545,1.0991836734693834,69
1764363028.7768745,169001,1.173,36.27,-5.865994526578524,1.1491836734693877,69
1764363028.8787684,169101,1.173,36.27,-5.865994526578524,1.1491836734693877,69
1764363028.9811401,169201,1.1779,36.22,-5.4727663707219545,1.0991836734693834,69
1764363029.0835018,169301,1.1779,36.4,-5.4727663707219545,1.279183673469383,69
1764363029.1858773,169401,1.1681,36.13,-6.259222682435111,1.009183673469387,69
1764363029.287878,169501,1.173,36.09,-5.865994526578524,0.9691836734693879,69
1764363029.3900185,169601,1.173,36.27,-5.865994526578524,1.1491836734693877,69
1764363029.4923391,169701,1.173,36.27,-5.865994526578524,1.1491836734693877,63
1764363029.5947156,169801,1.173,36.27,-5.865994526578524,1.1491836734693877,58
1764363029.6970286,169901,1.1828,36.49,-5.079538214865367,1.3691836734693865,52
1764363029.7993996,170001,1.1779,36.04,-5.4727663707219545,0.9191836734693837,47
1764363029.90214,170101,1.1681,36.13,-6.259222682435111,1.009183673469387,42
1764363030.0042515,170201,1.1779,36.36,-5.4727663707219545,1.239183673469384,43
1764363030.106444,170301,1.173,36.36,-5.865994526578524,1.239183673469384,44
1764363030.2092083,170401,1.173,36.27,-5.865994526578524,1.1491836734693877,45
1764363030.3109412,170501,1.1779,36.4,-5.4727663707219545,1.279183673469383,45
1764363030.4145188,170601,1.173,35.95,-5.865994526578524,0.8291836734693874,46
1764363030.5172284,170701,1.173,36.54,-5.865994526578524,1.4191836734693837,47
1764363030.6202397,170801,1.173,36.22,-5.865994526578524,1.0991836734693834,48
1764363030.7234626,170901,1.1779,36.54,-5.4727663707219545,1.4191836734693837,49
1764363030.8264065,171001,1.173,36.22,-5.865994526578524,1.0991836734693834,50
1764363030.9282126,171101,1.1681,36.13,-6.259222682435111,1.009183673469387,50
1764363031.0300026,171201,1.173,36.27,-5.865994526578524,1.1491836734693877,50
1764363031.131998,171301,1.173,36.04,-5.865994526578524,0.9191836734693837,50
1764363031.234153,171401,1.173,35.95,-5.865994526578524,0.8291836734693874,50
1764363031.3358994,171501,1.173,36.49,-5.865994526578524,1.3691836734693865,50
1764363031.4383194,171601,1.173,36.13,-5.865994526578524,1.009183673469387,50
1764363031.540625,171701,1.173,36.0,-5.865994526578524,0.8791836734693845,50
1764363031.6443326,171801,1.173,36.04,-5.865994526578524,0.9191836734693837,50
1764363031.746627,171901,1.173,35.95,-5.865994526578524,0.8291836734693874,50
1764363031.8489797,172001,1.1779,36.45,-5.4727663707219545,1.3291836734693874,50
1764363031.9509125,172101,1.173,36.45,-5.865994526578524,1.3291836734693874,49
1764363032.052918,172201,1.1632,35.73,-6.6524508382916805,0.6091836734693814,49
1764363032.1553955,172301,1.173,36.27,-5.865994526578524,1.1491836734693877,48
1764363032.2578988,172401,1.1681,36.04,-6.259222682435111,0.9191836734693837,48
1764363032.3606675,172501,1.173,36.04,-5.865994526578524,0.9191836734693837,48
1764363032.46282,172601,1.1779,36.36,-5.4727663707219545,1.239183673469384,48
1764363032.564867,172701,1.173,36.54,-5.865994526578524,1.4191836734693837,48
1764363032.6669164,172801,1.173,36.22,-5.865994526578524,1.0991836734693834,49
1764363032.76932,172901,1.1681,36.13,-6.259222682435111,1.009183673469387,50
1764363032.8711746,173001,1.1779,36.54,-5.4727663707219545,1.4191836734693837,50
1764363032.973879,173101,1.173,35.95,-5.865994526578524,0.8291836734693874,51
1764363033.0764203,173201,1.173,36.09,-5.865994526578524,0.9691836734693879,51
1764363033.1789124,173301,1.1681,36.09,-6.259222682435111,0.9691836734693879,50
1764363033.28158,173401,1.173,36.58,-5.865994526578524,1.4591836734693828,50
1764363033.3836367,173501,1.173,36.4,-5.865994526578524,1.279183673469383,50
1764363033.48569,173601,1.1681,36.31,-6.259222682435111,1.1891836734693868,50
1764363033.5886605,173701,1.173,36.13,-5.865994526578524,1.009183673469387,50
1764363033.6911964,173801,1.173,36.27,-5.865994526578524,1.1491836734693877,50
1764363033.7938051,173901,1.173,36.36,-5.865994526578524,1.239183673469384,50
1764363033.8960001,174001,1.173,35.95,-5.865994526578524,0.8291836734693874,50
1764363033.99799,174101,1.173,36.18,-5.865994526578524,1.0591836734693842,50
1764363034.1002526,174201,1.173,36.0,-5.865994526578524,0.8791836734693845,50
1764363034.2023818,174301,1.173,36.04,-5.865994526578524,0.9191836734693837,50
1764363034.3047013,174401,1.173,36.45,-5.865994526578524,1.3291836734693874,50
1764363034.4074352,174501,1.173,36.13,-5.865994526578524,1.009183673469387,51
1764363034.5100074,174601,1.173,36.31,-5.865994526578524,1.1891836734693868,52
1764363034.611836,174701,1.173,36.0,-5.865994526578524,0.8791836734693845,53
1764363034.7137723,174801,1.173,36.36,-5.865994526578524,1.239183673469384,54
1764363034.8155916,174901,1.173,36.31,-5.865994526578524,1.1891836734693868,55
1764363034.918058,175001,1.173,36.22,-5.865994526578524,1.0991836734693834,55
1764363035.0203545,175101,1.173,35.95,-5.865994526578524,0.8291836734693874,55
1764363035.122578,175201,1.173,36.22,-5.865994526578524,1.0991836734693834,55
1764363035.2243757,175301,1.1632,36.45,-6.6524508382916805,1.3291836734693874,55
1764363035.3270853,175401,1.173,36.54,-5.865994526578524,1.4191836734693837,55
1764363035.4287078,175501,1.173,36.04,-5.865994526578524,0.9191836734693837,55
1764363035.5308135,175601,1.173,36.36,-5.865994526578524,1.239183673469384,55
1764363035.6324413,175701,1.173,36.04,-5.865994526578524,0.9191836734693837,55
1764363035.7344656,175801,1.173,36.45,-5.865994526578524,1.3291836734693874,55
1764363035.836855,175901,1.1535,35.46,-7.430882085599603,0.3391836734693854,55
1764363035.9396212,176001,1.1681,36.04,-6.259222682435111,0.9191836734693837,57
1764363036.0441232,176101,1.1632,35.95,-6.6524508382916805,0.8291836734693874,59
1764363036.1463172,176201,1.1681,36.0,-6.259222682435111,0.8791836734693845,61
1764363036.2485485,176301,1.1681,36.09,-6.259222682435111,0.9691836734693879,63
1764363036.350566,176401,1.1681,36.13,-6.259222682435111,1.009183673469387,65
1764363036.4527173,176501,1.173,36.4,-5.865994526578524,1.279183673469383,65
1764363036.5555778,176601,1.1584,35.86,-7.037653929743016,0.739183673469384,65
1764363036.6586392,176701,1.1681,36.13,-6.259222682435111,1.009183673469387,65
1764363036.760416,176801,1.173,36.04,-5.865994526578524,0.9191836734693837,65
1764363036.8622506,176901,1.173,36.54,-5.865994526578524,1.4191836734693837,65
1764363036.9644117,177001,1.173,36.49,-5.865994526578524,1.3691836734693865,65
1764363037.066961,177101,1.1681,36.36,-6.259222682435111,1.239183673469384,65
1764363037.1695273,177201,1.1681,36.04,-6.259222682435111,0.9191836734693837,65
1764363037.271629,177301,1.1681,36.13,-6.259222682435111,1.009183673469387,65
1764363037.373603,177401,1.173,36.04,-5.865994526578524,0.9191836734693837,65
1764363037.475297,177501,1.1632,36.0,-6.6524508382916805,0.8791836734693845,65
1764363037.5770037,177601,1.173,36.58,-5.865994526578524,1.4591836734693828,65
1764363037.6785407,177701,1.1681,36.0,-6.259222682435111,0.8791836734693845,65
1764363037.780933,177801,1.1681,36.31,-6.259222682435111,1.1891836734693868,65
1764363037.8831446,177901,1.1681,36.13,-6.259222682435111,1.009183673469387,65
1764363037.985729,178001,1.173,36.45,-5.865994526578524,1.3291836734693874,65
1764363038.0888128,178101,1.173,36.0,-5.865994526578524,0.8791836734693845,65
1764363038.1921217,178201,1.173,36.58,-5.865994526578524,1.4591836734693828,64
1764363038.2942579,178301,1.173,36.58,-5.865994526578524,1.4591836734693828,64
1764363038.3968878,178401,1.1779,36.49,-5.4727663707219545,1.3691836734693865,63
1764363038.4988673,178501,1.173,36.18,-5.865994526578524,1.0591836734693842,63
1764363038.600945,178601,1.173,36.31,-5.865994526578524,1.1891836734693868,63
1764363038.702548,178701,1.173,36.0,-5.865994526578524,0.8791836734693845,63
1764363038.8047457,178801,1.1779,36.49,-5.4727663707219545,1.3691836734693865,63
1764363038.9147892,178901,1.173,36.36,-5.865994526578524,1.239183673469384,63
1764363039.0167103,179001,1.173,36.49,-5.865994526578524,1.3691836734693865,63
1764363039.1185083,179101,1.173,36.0,-5.865994526578524,0.8791836734693845,63
1764363039.2218394,179201,1.173,35.95,-5.865994526578524,0.8291836734693874,63
1764363039.3242698,179301,1.1779,36.49,-5.4727663707219545,1.3691836734693865,63
1764363039.4268486,179401,1.173,36.4,-5.865994526578524,1.279183673469383,63
1764363039.5288844,179501,1.173,36.49,-5.865994526578524,1.3691836734693865,63
1764363039.631214,179601,1.173,36.49,-5.865994526578524,1.3691836734693865,63
1764363039.7335267,179701,1.173,36.45,-5.865994526578524,1.3291836734693874,63
1764363039.8355005,179801,1.173,36.58,-5.865994526578524,1.4591836734693828,63
1764363039.9382088,179901,1.173,36.54,-5.865994526578524,1.4191836734693837,63
1764363040.040436,180001,1.1681,36.13,-6.259222682435111,1.009183673469387,63
1764363040.1428752,180101,1.1681,36.0,-6.259222682435111,0.8791836734693845,63
1764363040.2455006,180201,1.173,36.45,-5.865994526578524,1.3291836734693874,63
1764363040.3474112,180301,1.173,36.0,-5.865994526578524,0.8791836734693845,63
1764363040.4495666,180401,1.1681,36.22,-6.259222682435111,1.0991836734693834,63
1764363040.551484,180501,1.1681,36.49,-6.259222682435111,1.3691836734693865,63
1764363040.6574476,180601,1.1681,36.18,-6.259222682435111,1.0591836734693842,63
1764363040.7597716,180701,1.173,36.54,-5.865994526578524,1.4191836734693837,63
1764363040.8619611,180801,1.1681,36.18,-6.259222682435111,1.0591836734693842,63
1764363040.964519,180901,1.173,36.4,-5.865994526578524,1.279183673469383,63
1764363041.0665028,181001,1.1632,35.82,-6.6524508382916805,0.6991836734693848,63
1764363041.1682856,181101,1.1681,36.13,-6.259222682435111,1.009183673469387,63
1764363041.271579,181201,1.173,36.0,-5.865994526578524,0.8791836734693845,63
1764363041.3744786,181301,1.1681,36.31,-6.259222682435111,1.1891836734693868,63
1764363041.4767964,181401,1.173,36.31,-5.865994526578524,1.1891836734693868,63
1764363041.5791185,181501,1.173,36.58,-5.865994526578524,1.4591836734693828,63
1764363041.6811514,181601,1.173,36.49,-5.865994526578524,1.3691836734693865,63
1764363041.7829962,181701,1.173,36.18,-5.865994526578524,1.0591836734693842,63
1764363041.885802,181801,1.173,36.0,-5.865994526578524,0.8791836734693845,63
1764363041.9893382,181901,1.1681,36.22,-6.259222682435111,1.0991836734693834,63
1764363042.0916064,182001,1.1779,36.49,-5.4727663707219545,1.3691836734693865,63
1764363042.1936724,182101,1.173,36.31,-5.865994526578524,1.1891836734693868,63
1764363042.296202,182201,1.173,36.54,-5.865994526578524,1.4191836734693837,63
1764363042.3987467,182301,1.173,36.09,-5.865994526578524,0.9691836734693879,63
1764363042.5012865,182401,1.173,36.0,-5.865994526578524,0.8791836734693845,63
1764363042.604648,182501,1.173,36.04,-5.865994526578524,0.9191836734693837,63
1764363042.706596,182601,1.1681,36.36,-6.259222682435111,1.239183673469384,63
1764363042.8084662,182701,1.1681,36.13,-6.259222682435111,1.009183673469387,63
1764363042.9108324,182801,1.1681,36.36,-6.259222682435111,1.239183673469384,63
1764363043.0248313,182901,1.173,36.58,-5.865994526578524,1.4591836734693828,63
1764363043.127221,183001,1.1681,36.09,-6.259222682435111,0.9691836734693879,63
1764363043.229405,183101,1.173,36.58,-5.865994526578524,1.4591836734693828,63
1764363043.3313797,183201,1.1681,36.4,-6.259222682435111,1.279183673469383,62
1764363043.4354932,183301,1.173,36.31,-5.865994526578524,1.1891836734693868,62
1764363043.5379925,183401,1.173,36.54,-5.865994526578524,1.4191836734693837,62
1764363043.6398115,183501,1.1681,36.13,-6.259222682435111,1.009183673469387,61
1764363043.74187,183601,1.173,36.13,-5.865994526578524,1.009183673469387,61
1764363043.8446977,183701,1.173,36.54,-5.865994526578524,1.4191836734693837,61
1764363043.9481897,183801,1.1681,36.09,-6.259222682435111,0.9691836734693879,61
1764363044.0506392,183901,1.173,36.36,-5.865994526578524,1.239183673469384,61
1764363044.1539726,184001,1.1681,36.13,-6.259222682435111,1.009183673469387,60
1764363044.2562623,184101,1.173,36.58,-5.865994526578524,1.4591836734693828,60
1764363044.3586419,184201,1.1681,36.31,-6.259222682435111,1.1891836734693868,61
1764363044.461415,184301,1.173,36.0,-5.865994526578524,0.8791836734693845,61
1764363044.563802,184401,1.173,36.13,-5.865994526578524,1.009183673469387,62
1764363044.666226,184501,1.173,36.13,-5.865994526578524,1.009183673469387,63
1764363044.7704582,184601,1.1779,36.54,-5.4727663707219545,1.4191836734693837,65
1764363044.8726933,184701,1.173,36.0,-5.865994526578524,0.8791836734693845,65
1764363044.9744534,184801,1.1681,36.18,-6.259222682435111,1.0591836734693842,65
1764363045.0764754,184901,1.173,36.49,-5.865994526578524,1.3691836734693865,66
1764363045.178874,185001,1.1779,36.54,-5.4727663707219545,1.4191836734693837,66
1764363045.2810333,185101,1.1681,36.04,-6.259222682435111,0.9191836734693837,65
1764363045.383807,185201,1.1681,36.36,-6.259222682435111,1.239183673469384,65
1764363045.4866993,185301,1.1632,36.04,-6.6524508382916805,0.9191836734693837,62
1764363045.5887887,185401,1.1681,36.22,-6.259222682435111,1.0991836734693834,59
1764363045.691091,185501,1.1632,35.64,-6.6524508382916805,0.5191836734693851,56
1764363045.793668,185601,1.1681,36.18,-6.259222682435111,1.0591836734693842,54
1764363045.896092,185701,1.1681,36.49,-6.259222682435111,1.3691836734693865,51
1764363045.9986215,185801,1.1681,36.31,-6.259222682435111,1.1891836734693868,51
1764363046.103828,185901,1.173,36.09,-5.865994526578524,0.9691836734693879,51
1764363046.2061787,186001,1.173,36.31,-5.865994526578524,1.1891836734693868,51
1764363046.3086085,186101,1.173,36.27,-5.865994526578524,1.1491836734693877,51
1764363046.411626,186201,1.173,36.22,-5.865994526578524,1.0991836734693834,51
1764363046.5144918,186301,1.173,36.04,-5.865994526578524,0.9191836734693837,51
1764363046.618113,186401,1.1681,36.18,-6.259222682435111,1.0591836734693842,54
1764363046.7201996,186501,1.1681,36.27,-6.259222682435111,1.1491836734693877,57
1764363046.8220658,186601,1.173,36.58,-5.865994526578524,1.4591836734693828,59
1764363046.9246035,186701,1.173,36.49,-5.865994526578524,1.3691836734693865,62
1764363047.027067,186801,1.173,36.63,-5.865994526578524,1.509183673469387,64
1764363047.1292481,186901,1.173,36.27,-5.865994526578524,1.1491836734693877,64
1764363047.2320716,187001,1.173,36.04,-5.865994526578524,0.9191836734693837,63
1764363047.3349373,187101,1.1779,36.49,-5.4727663707219545,1.3691836734693865,63
1764363047.4372153,187201,1.173,36.13,-5.865994526578524,1.009183673469387,63
1764363047.5390956,187301,1.173,36.27,-5.865994526578524,1.1491836734693877,63
1764363047.6414492,187401,1.173,36.31,-5.865994526578524,1.1891836734693868,63
1764363047.7445238,187501,1.173,36.31,-5.865994526578524,1.1891836734693868,63
1764363047.8468807,187601,1.173,36.22,-5.865994526578524,1.0991836734693834,63
1764363047.9493005,187701,1.173,36.04,-5.865994526578524,0.9191836734693837,63
1764363048.051626,187801,1.1681,36.22,-6.259222682435111,1.0991836734693834,63
1764363048.1544008,187901,1.173,36.4,-5.865994526578524,1.279183673469383,63
1764363048.256528,188001,1.173,36.4,-5.865994526578524,1.279183673469383,63
1764363048.3586426,188101,1.1681,36.18,-6.259222682435111,1.0591836734693842,63
1764363048.4609652,188201,1.1681,36.63,-6.259222682435111,1.509183673469387,63
1764363048.5630677,188301,1.173,36.49,-5.865994526578524,1.3691836734693865,63
1764363048.666511,188401,1.173,36.04,-5.865994526578524,0.9191836734693837,63
1764363048.7693446,188501,1.173,36.4,-5.865994526578524,1.279183673469383,63
1764363048.8714547,188601,1.1681,36.31,-6.259222682435111,1.1891836734693868,63
1764363048.9733386,188701,1.173,36.4,-5.865994526578524,1.279183673469383,63
1764363049.0754292,188801,1.173,36.58,-5.865994526578524,1.4591836734693828,63
1764363049.1775682,188901,1.1632,36.45,-6.6524508382916805,1.3291836734693874,63
1764363049.2797418,189001,1.173,35.82,-5.865994526578524,0.6991836734693848,63
1764363049.383316,189101,1.1681,36.0,-6.259222682435111,0.8791836734693845,63
1764363049.485544,189201,1.173,36.54,-5.865994526578524,1.4191836734693837,63
1764363049.5879521,189301,1.1681,36.4,-6.259222682435111,1.279183673469383,63
1764363049.689938,189401,1.1681,36.22,-6.259222682435111,1.0991836734693834,62
1764363049.7919507,189501,1.1681,36.27,-6.259222682435111,1.1491836734693877,61
1764363049.894166,189601,1.1681,36.13,-6.259222682435111,1.009183673469387,60
1764363049.9971266,189701,1.173,36.22,-5.865994526578524,1.0991836734693834,60
1764363050.0998266,189801,1.1681,36.4,-6.259222682435111,1.279183673469383,60
1764363050.2025454,189901,1.1632,36.09,-6.6524508382916805,0.9691836734693879,61
1764363050.3048165,190001,1.173,36.54,-5.865994526578524,1.4191836734693837,61
1764363050.4071333,190101,1.1681,36.27,-6.259222682435111,1.1491836734693877,62
1764363050.5094934,190201,1.1779,36.54,-5.4727663707219545,1.4191836734693837,62
1764363050.6124854,190301,1.173,36.58,-5.865994526578524,1.4591836734693828,61
1764363050.715332,190401,1.1681,36.09,-6.259222682435111,0.9691836734693879,61
1764363050.8178928,190501,1.173,36.54,-5.865994526578524,1.4191836734693837,60
1764363050.9201949,190601,1.1681,36.18,-6.259222682435111,1.0591836734693842,60
1764363051.0223002,190701,1.173,36.58,-5.865994526578524,1.4591836734693828,60
1764363051.125518,190801,1.1632,36.04,-6.6524508382916805,0.9191836734693837,60
1764363051.2288687,190901,1.1681,36.4,-6.259222682435111,1.279183673469383,60
1764363051.333867,191001,1.1681,36.04,-6.259222682435111,0.9191836734693837,60
1764363051.4361048,191101,1.1681,36.63,-6.259222682435111,1.509183673469387,59
1764363051.5381289,191201,1.173,36.54,-5.865994526578524,1.4191836734693837,59
1764363051.64064,191301,1.1681,36.36,-6.259222682435111,1.239183673469384,59
1764363051.7428617,191401,1.1584,36.04,-7.037653929743016,0.9191836734693837,58
1764363051.846157,191501,1.1681,36.22,-6.259222682435111,1.0991836734693834,58
1764363051.948742,191601,1.1681,36.45,-6.259222682435111,1.3291836734693874,58
1764363052.0508199,191701,1.1681,36.63,-6.259222682435111,1.509183673469387,58
1764363052.1529186,191801,1.173,36.58,-5.865994526578524,1.4591836734693828,58
1764363052.2547286,191901,1.1681,36.49,-6.259222682435111,1.3691836734693865,59
1764363052.3570957,192001,1.1681,36.18,-6.259222682435111,1.0591836734693842,60
1764363052.4597545,192101,1.1681,36.27,-6.259222682435111,1.1491836734693877,61
1764363052.563383,192201,1.1779,36.49,-5.4727663707219545,1.3691836734693865,62
1764363052.6662195,192301,1.1681,36.22,-6.259222682435111,1.0991836734693834,62
1764363052.7689059,192401,1.1681,36.68,-6.259222682435111,1.5591836734693842,62
1764363052.8718302,192501,1.1681,36.31,-6.259222682435111,1.1891836734693868,61
1764363052.974341,192601,1.1681,36.04,-6.259222682435111,0.9191836734693837,61
1764363053.0771358,192701,1.1681,36.04,-6.259222682435111,0.9191836734693837,60
1764363053.1800592,192801,1.1632,36.04,-6.6524508382916805,0.9191836734693837,60
1764363053.2825098,192901,1.1681,36.31,-6.259222682435111,1.1891836734693868,60
1764363053.3851044,193001,1.1681,36.22,-6.259222682435111,1.0991836734693834,60
1764363053.4878004,193101,1.1681,36.49,-6.259222682435111,1.3691836734693865,60
1764363053.590306,193201,1.1681,36.36,-6.259222682435111,1.239183673469384,60
1764363053.69286,193301,1.1681,36.04,-6.259222682435111,0.9191836734693837,60
1764363053.7952611,193401,1.1681,36.63,-6.259222682435111,1.509183673469387,59
1764363053.8985982,193501,1.1681,36.22,-6.259222682435111,1.0991836734693834,59
1764363054.0192676,193601,1.1681,36.09,-6.259222682435111,0.9691836734693879,58
1764363054.122643,193701,1.1632,36.13,-6.6524508382916805,1.009183673469387,58
1764363054.2248476,193801,1.1681,36.31,-6.259222682435111,1.1891836734693868,58
1764363054.327466,193901,1.173,36.18,-5.865994526578524,1.0591836734693842,58
1764363054.4306107,194001,1.1681,36.18,-6.259222682435111,1.0591836734693842,57
1764363054.5326989,194101,1.1681,36.54,-6.259222682435111,1.4191836734693837,55
1764363054.6348774,194201,1.1681,36.31,-6.259222682435111,1.1891836734693868,54
1764363054.7372775,194301,1.1779,36.58,-5.4727663707219545,1.4591836734693828,53
1764363054.8394496,194401,1.1681,36.31,-6.259222682435111,1.1891836734693868,51
1764363054.9415016,194501,1.1681,36.18,-6.259222682435111,1.0591836734693842,51
1764363055.044909,194601,1.1681,36.13,-6.259222682435111,1.009183673469387,51
1764363055.1482768,194701,1.173,36.13,-5.865994526578524,1.009183673469387,51
1764363055.250494,194801,1.173,36.4,-5.865994526578524,1.279183673469383,51
1764363055.352293,194901,1.1681,36.09,-6.259222682435111,0.9691836734693879,51
1764363055.4542844,195001,1.173,36.63,-5.865994526578524,1.509183673469387,51
1764363055.556614,195101,1.1779,36.54,-5.4727663707219545,1.4191836734693837,51
1764363055.658378,195201,1.1779,36.58,-5.4727663707219545,1.4591836734693828,51
1764363055.7615116,195301,1.1779,36.58,-5.4727663707219545,1.4591836734693828,51
1764363055.8636167,195401,1.1632,36.09,-6.6524508382916805,0.9691836734693879,51
1764363055.9661798,195501,1.173,36.54,-5.865994526578524,1.4191836734693837,51
1764363056.067921,195601,1.1681,36.09,-6.259222682435111,0.9691836734693879,52
1764363056.170336,195701,1.1681,36.49,-6.259222682435111,1.3691836734693865,52
1764363056.2726228,195801,1.173,36.09,-5.865994526578524,0.9691836734693879,52
1764363056.374487,195901,1.173,36.04,-5.865994526578524,0.9191836734693837,52
1764363056.4769638,196001,1.1681,36.13,-6.259222682435111,1.009183673469387,52
1764363056.580382,196101,1.173,36.13,-5.865994526578524,1.009183673469387,53
1764363056.6827476,196201,1.173,36.04,-5.865994526578524,0.9191836734693837,53
1764363056.7844768,196301,1.173,36.63,-5.865994526578524,1.509183673469387,54
1764363056.8864837,196401,1.173,36.13,-5.865994526578524,1.009183673469387,55
1764363056.9890513,196501,1.173,36.72,-5.865994526578524,1.5991836734693834,55
1764363057.091825,196601,1.173,36.63,-5.865994526578524,1.509183673469387,55
1764363057.1945126,196701,1.173,36.63,-5.865994526578524,1.509183673469387,55
1764363057.2971098,196801,1.1681,36.18,-6.259222682435111,1.0591836734693842,55
1764363057.3995554,196901,1.1681,36.31,-6.259222682435111,1.1891836734693868,56
1764363057.5015836,197001,1.173,36.63,-5.865994526578524,1.509183673469387,57
1764363057.6038628,197101,1.173,36.45,-5.865994526578524,1.3291836734693874,58
1764363057.706369,197201,1.173,36.63,-5.865994526578524,1.509183673469387,59
1764363057.8085973,197301,1.173,36.58,-5.865994526578524,1.4591836734693828,59
1764363057.9113104,197401,1.173,36.63,-5.865994526578524,1.509183673469387,60
1764363058.014305,197501,1.173,36.27,-5.865994526578524,1.1491836734693877,60
1764363058.1165516,197601,1.173,36.04,-5.865994526578524,0.9191836734693837,60
1764363058.2185624,197701,1.1681,36.22,-6.259222682435111,1.0991836734693834,60
1764363058.3209467,197801,1.1681,36.58,-6.259222682435111,1.4591836734693828,60
1764363058.4232886,197901,1.173,36.63,-5.865994526578524,1.509183673469387,60
1764363058.526559,198001,1.1681,36.27,-6.259222682435111,1.1491836734693877,61
1764363058.6295555,198101,1.1681,36.31,-6.259222682435111,1.1891836734693868,61
1764363058.732814,198201,1.173,36.45,-5.865994526578524,1.3291836734693874,61
1764363058.834951,198301,1.173,36.31,-5.865994526578524,1.1891836734693868,62
1764363058.9372804,198401,1.173,36.63,-5.865994526578524,1.509183673469387,62
1764363059.0392919,198501,1.173,36.09,-5.865994526578524,0.9691836734693879,62
1764363059.1423666,198601,1.1779,36.54,-5.4727663707219545,1.4191836734693837,62
1764363059.2447195,198701,1.1632,35.95,-6.6524508382916805,0.8291836734693874,62
1764363059.3471882,198801,1.1632,35.77,-6.6524508382916805,0.6491836734693877,62
1764363059.4491541,198901,1.173,36.4,-5.865994526578524,1.279183673469383,63
1764363059.5522351,199001,1.1681,36.31,-6.259222682435111,1.1891836734693868,63
1764363059.6546128,199101,1.1681,36.27,-6.259222682435111,1.1491836734693877,63
1764363059.7567744,199201,1.173,36.4,-5.865994526578524,1.279183673469383,64
1764363059.8596394,199301,1.1632,36.04,-6.6524508382916805,0.9191836734693837,64
1764363059.9625375,199401,1.1681,36.18,-6.259222682435111,1.0591836734693842,65
1764363060.064775,199501,1.1584,36.09,-7.037653929743016,0.9691836734693879,65
1764363060.1677182,199601,1.1681,36.31,-6.259222682435111,1.1891836734693868,66
1764363060.2701414,199701,1.1681,36.27,-6.259222682435111,1.1491836734693877,66
1764363060.3722582,199801,1.1681,36.54,-6.259222682435111,1.4191836734693837,66
1764363060.476144,199901,1.173,36.63,-5.865994526578524,1.509183673469387,66
1764363060.5787523,200001,1.1681,36.54,-6.259222682435111,1.4191836734693837,66
1764363060.6808941,200101,1.1632,36.18,-6.6524508382916805,1.0591836734693842,67
1764363060.7828276,200201,1.1681,36.4,-6.259222682435111,1.279183673469383,68
1764363060.8848538,200301,1.1632,36.22,-6.6524508382916805,1.0991836734693834,69
1764363060.9872196,200401,1.1632,36.13,-6.6524508382916805,1.009183673469387,69
1764363061.0903811,200501,1.1681,36.63,-6.259222682435111,1.509183673469387,69
1764363061.193216,200601,1.1681,36.54,-6.259222682435111,1.4191836734693837,69
1764363061.295341,200701,1.1681,36.09,-6.259222682435111,0.9691836734693879,69
1764363061.3976197,200801,1.1681,36.72,-6.259222682435111,1.5991836734693834,68
1764363061.49951,200901,1.1681,36.18,-6.259222682435111,1.0591836734693842,68
1764363061.6017954,201001,1.1681,36.68,-6.259222682435111,1.5591836734693842,68
1764363061.704129,201101,1.1681,36.68,-6.259222682435111,1.5591836734693842,69
1764363061.8068194,201201,1.1681,36.13,-6.259222682435111,1.009183673469387,69
1764363061.909305,201301,1.173,36.54,-5.865994526578524,1.4191836734693837,69
1764363062.0120625,201401,1.1681,36.22,-6.259222682435111,1.0991836734693834,69
1764363062.1143093,201501,1.1681,36.09,-6.259222682435111,0.9691836734693879,68
1764363062.2161841,201601,1.1681,36.31,-6.259222682435111,1.1891836734693868,67
1764363062.317952,201701,1.1681,36.36,-6.259222682435111,1.239183673469384,66
1764363062.4198651,201801,1.1681,36.72,-6.259222682435111,1.5991836734693834,65
1764363062.522294,201901,1.1681,36.31,-6.259222682435111,1.1891836734693868,65
1764363062.626333,202001,1.1681,36.63,-6.259222682435111,1.509183673469387,65
1764363062.728891,202101,1.173,36.04,-5.865994526578524,0.9191836734693837,68
1764363062.830902,202201,1.1681,36.63,-6.259222682435111,1.509183673469387,70
1764363062.9335334,202301,1.173,36.58,-5.865994526578524,1.4591836734693828,72
1764363063.0356362,202401,1.1632,36.09,-6.6524508382916805,0.9691836734693879,74
1764363063.1376622,202501,1.1681,36.4,-6.259222682435111,1.279183673469383,76
1764363063.2411103,202601,1.1681,36.72,-6.259222682435111,1.5991836734693834,75
1764363063.344492,202701,1.1681,36.36,-6.259222682435111,1.239183673469384,75
1764363063.447348,202801,1.1681,36.27,-6.259222682435111,1.1491836734693877,75
1764363063.5492432,202901,1.1681,36.18,-6.259222682435111,1.0591836734693842,75
1764363063.6520228,203001,1.1681,36.58,-6.259222682435111,1.4591836734693828,75
1764363063.754709,203101,1.1681,36.36,-6.259222682435111,1.239183673469384,75
1764363063.857701,203201,1.1632,36.27,-6.6524508382916805,1.1491836734693877,75
1764363063.9599307,203301,1.173,36.58,-5.865994526578524,1.4591836734693828,75
1764363064.0625014,203401,1.1681,36.49,-6.259222682435111,1.3691836734693865,74
1764363064.1646569,203501,1.1584,36.36,-7.037653929743016,1.239183673469384,74
1764363064.2666445,203601,1.1779,36.45,-5.4727663707219545,1.3291836734693874,73
1764363064.3693001,203701,1.1681,36.09,-6.259222682435111,0.9691836734693879,73
1764363064.472286,203801,1.173,36.31,-5.865994526578524,1.1891836734693868,72
1764363064.5753207,203901,1.173,36.45,-5.865994526578524,1.3291836734693874,71
1764363064.677977,204001,1.1681,36.27,-6.259222682435111,1.1491836734693877,71
1764363064.779699,204101,1.173,36.63,-5.865994526578524,1.509183673469387,70
1764363064.8925335,204201,1.173,36.36,-5.865994526578524,1.239183673469384,71
1764363064.9952755,204301,1.1681,36.31,-6.259222682435111,1.1891836734693868,71
1764363065.0974846,204401,1.173,36.49,-5.865994526578524,1.3691836734693865,71
1764363065.1995668,204501,1.1681,36.27,-6.259222682435111,1.1491836734693877,71
1764363065.3023024,204601,1.173,36.45,-5.865994526578524,1.3291836734693874,71
1764363065.4053473,204701,1.173,36.22,-5.865994526578524,1.0991836734693834,71
1764363065.508241,204801,1.1681,36.63,-6.259222682435111,1.509183673469387,71
1764363065.6105626,204901,1.173,36.58,-5.865994526578524,1.4591836734693828,71
1764363065.7135448,205001,1.1681,36.63,-6.259222682435111,1.509183673469387,70
1764363065.8163385,205101,1.173,36.72,-5.865994526578524,1.5991836734693834,69
1764363065.9187765,205201,1.1681,36.09,-6.259222682435111,0.9691836734693879,69
1764363066.0211527,205301,1.1779,36.22,-5.4727663707219545,1.0991836734693834,69
1764363066.1255088,205401,1.1681,36.63,-6.259222682435111,1.509183673469387,68
1764363066.2279267,205501,1.173,36.63,-5.865994526578524,1.509183673469387,69
1764363066.3299088,205601,1.173,36.68,-5.865994526578524,1.5591836734693842,70
1764363066.4324322,205701,1.173,36.27,-5.865994526578524,1.1491836734693877,69
1764363066.5347319,205801,1.173,36.27,-5.865994526578524,1.1491836734693877,68
1764363066.6370816,205901,1.173,36.36,-5.865994526578524,1.239183673469384,68
1764363066.741498,206001,1.173,36.09,-5.865994526578524,0.9691836734693879,67
1764363066.8434458,206101,1.173,36.04,-5.865994526578524,0.9191836734693837,67
1764363066.9456239,206201,1.1681,36.36,-6.259222682435111,1.239183673469384,67
1764363067.0479422,206301,1.1681,36.13,-6.259222682435111,1.009183673469387,67
1764363067.1502335,206401,1.1681,36.22,-6.259222682435111,1.0991836734693834,67
1764363067.2532609,206501,1.1681,36.13,-6.259222682435111,1.009183673469387,67
1764363067.3561394,206601,1.1681,36.36,-6.259222682435111,1.239183673469384,67
1764363067.4585736,206701,1.1779,36.58,-5.4727663707219545,1.4591836734693828,67
1764363067.5605974,206801,1.173,36.54,-5.865994526578524,1.4191836734693837,66
1764363067.6631918,206901,1.1681,36.63,-6.259222682435111,1.509183673469387,65
1764363067.7662592,207001,1.1681,36.31,-6.259222682435111,1.1891836734693868,64
1764363067.8689804,207101,1.1681,36.18,-6.259222682435111,1.0591836734693842,63
1764363067.9718683,207201,1.1681,36.36,-6.259222682435111,1.239183673469384,61
1764363068.0746157,207301,1.1681,36.68,-6.259222682435111,1.5591836734693842,61
1764363068.1765752,207401,1.1681,36.58,-6.259222682435111,1.4591836734693828,61
1764363068.2790616,207501,1.1681,36.36,-6.259222682435111,1.239183673469384,61
1764363068.3811684,207601,1.1681,36.72,-6.259222682435111,1.5991836734693834,61
1764363068.4832993,207701,1.1632,36.13,-6.6524508382916805,1.009183673469387,61
1764363068.5856702,207801,1.1681,36.18,-6.259222682435111,1.0591836734693842,60
1764363068.6890697,207901,1.1681,36.68,-6.259222682435111,1.5591836734693842,60
1764363068.7910643,208001,1.1681,36.49,-6.259222682435111,1.3691836734693865,60
1764363068.8932476,208101,1.1681,36.36,-6.259222682435111,1.239183673469384,59
1764363068.9958363,208201,1.1681,36.54,-6.259222682435111,1.4191836734693837,59
1764363069.0984051,208301,1.1681,36.63,-6.259222682435111,1.509183673469387,59
1764363069.2005765,208401,1.1681,36.72,-6.259222682435111,1.5991836734693834,59
1764363069.3037813,208501,1.173,36.45,-5.865994526578524,1.3291836734693874,58
1764363069.4061105,208601,1.173,36.4,-5.865994526578524,1.279183673469383,57
1764363069.5080879,208701,1.1632,36.13,-6.6524508382916805,1.009183673469387,56
1764363069.610102,208801,1.1681,36.18,-6.259222682435111,1.0591836734693842,54
1764363069.7125564,208901,1.1681,36.54,-6.259222682435111,1.4191836734693837,53
1764363069.8149185,209001,1.1632,36.13,-6.6524508382916805,1.009183673469387,52
1764363069.9172657,209101,1.1681,36.49,-6.259222682435111,1.3691836734693865,51
1764363070.020932,209201,1.1681,36.45,-6.259222682435111,1.3291836734693874,50
1764363070.123016,209301,1.1681,36.58,-6.259222682435111,1.4591836734693828,49
1764363070.2252045,209401,1.1632,36.22,-6.6524508382916805,1.0991836734693834,49
1764363070.3276508,209501,1.1681,36.58,-6.259222682435111,1.4591836734693828,48
1764363070.4297504,209601,1.1681,36.72,-6.259222682435111,1.5991836734693834,48
1764363070.532068,209701,1.1632,36.31,-6.6524508382916805,1.1891836734693868,48
1764363070.6342463,209801,1.1632,36.4,-6.6524508382916805,1.279183673469383,49
1764363070.737026,209901,1.1632,36.18,-6.6524508382916805,1.0591836734693842,49
1764363070.8397279,210001,1.1584,36.4,-7.037653929743016,1.279183673469383,49
1764363070.9417562,210101,1.1584,36.31,-7.037653929743016,1.1891836734693868,49
1764363071.0440476,210201,1.1584,36.27,-7.037653929743016,1.1491836734693877,50
1764363071.146435,210301,1.1632,36.45,-6.6524508382916805,1.3291836734693874,50
1764363071.248935,210401,1.1632,36.18,-6.6524508382916805,1.0591836734693842,50
1764363071.352582,210501,1.1632,36.31,-6.6524508382916805,1.1891836734693868,50
1764363071.454889,210601,1.1632,36.45,-6.6524508382916805,1.3291836734693874,50
1764363071.5566356,210701,1.1681,36.63,-6.259222682435111,1.509183673469387,50
1764363071.6585424,210801,1.1632,36.36,-6.6524508382916805,1.239183673469384,50
1764363071.7607484,210901,1.1632,36.45,-6.6524508382916805,1.3291836734693874,50
1764363071.8634107,211001,1.1681,36.68,-6.259222682435111,1.5591836734693842,50
1764363071.9653394,211101,1.1632,36.13,-6.6524508382916805,1.009183673469387,50
1764363072.0701106,211201,1.1632,36.27,-6.6524508382916805,1.1491836734693877,49
1764363072.1718996,211301,1.1681,36.58,-6.259222682435111,1.4591836734693828,49
1764363072.2738013,211401,1.1584,36.4,-7.037653929743016,1.279183673469383,49
1764363072.3761232,211501,1.1584,36.45,-7.037653929743016,1.3291836734693874,48
1764363072.4783332,211601,1.1584,36.68,-7.037653929743016,1.5591836734693842,48
1764363072.5807095,211701,1.1584,36.36,-7.037653929743016,1.239183673469384,48
1764363072.6830537,211801,1.1584,36.09,-7.037653929743016,0.9691836734693879,48
1764363072.7866955,211901,1.1584,36.68,-7.037653929743016,1.5591836734693842,48
1764363072.889074,212001,1.1584,36.72,-7.037653929743016,1.5991836734693834,48
1764363072.9909556,212101,1.1535,36.4,-7.430882085599603,1.279183673469383,48
1764363073.093413,212201,1.1535,36.49,-7.430882085599603,1.3691836734693865,48
1764363073.1958926,212301,1.1535,36.49,-7.430882085599603,1.3691836734693865,48
1764363073.298553,212401,1.1535,36.31,-7.430882085599603,1.1891836734693868,48
1764363073.4017408,212501,1.1535,36.63,-7.430882085599603,1.509183673469387,48
1764363073.5040529,212601,1.1535,36.13,-7.430882085599603,1.009183673469387,48
1764363073.605759,212701,1.1584,36.54,-7.037653929743016,1.4191836734693837,48
1764363073.7076623,212801,1.1388,36.0,-8.61056655316933,0.8791836734693845,48
1764363073.810115,212901,1.1486,36.22,-7.8241102414561725,1.0991836734693834,48
1764363073.9124508,213001,1.1486,36.36,-7.8241102414561725,1.239183673469384,48
1764363074.0154054,213101,1.1486,36.58,-7.8241102414561725,1.4591836734693828,48
1764363074.1189852,213201,1.1486,36.27,-7.8241102414561725,1.1491836734693877,48
1764363074.220955,213301,1.1535,36.13,-7.430882085599603,1.009183673469387,48
1764363074.3231726,213401,1.1632,36.45,-6.6524508382916805,1.3291836734693874,48
1764363074.425188,213501,1.1535,36.49,-7.430882085599603,1.3691836734693865,49
1764363074.5277112,213601,1.1535,36.31,-7.430882085599603,1.1891836734693868,49
1764363074.6296833,213701,1.1535,36.22,-7.430882085599603,1.0991836734693834,49
1764363074.7321484,213801,1.1535,36.63,-7.430882085599603,1.509183673469387,48
1764363074.835071,213901,1.1535,36.45,-7.430882085599603,1.3291836734693874,48
1764363074.9367645,214001,1.1535,36.72,-7.430882085599603,1.5991836734693834,47
1764363075.0386875,214101,1.1535,36.4,-7.430882085599603,1.279183673469383,46
1764363075.140778,214201,1.1535,36.18,-7.430882085599603,1.0591836734693842,46
1764363075.2434275,214301,1.1535,36.72,-7.430882085599603,1.5991836734693834,46
1764363075.3457615,214401,1.1535,36.27,-7.430882085599603,1.1491836734693877,46
1764363075.448459,214501,1.1535,36.54,-7.430882085599603,1.4191836734693837,45
1764363075.552451,214601,1.1486,36.18,-7.8241102414561725,1.0591836734693842,44
1764363075.6549754,214701,1.1486,36.22,-7.8241102414561725,1.0991836734693834,44
1764363075.757024,214801,1.1339,35.5,-9.003794709025916,0.37918367346938453,44
1764363075.8597345,214901,1.1437,36.63,-8.21733839731276,1.509183673469387,45
1764363075.9623275,215001,1.1486,36.13,-7.8241102414561725,1.009183673469387,45
1764363076.0651202,215101,1.1584,36.58,-7.037653929743016,1.4591836734693828,45
1764363076.1678324,215201,1.1486,36.49,-7.8241102414561725,1.3691836734693865,47
1764363076.269994,215301,1.1535,36.45,-7.430882085599603,1.3291836734693874,48
1764363076.3719244,215401,1.1535,36.49,-7.430882085599603,1.3691836734693865,49
1764363076.4742544,215501,1.1535,36.22,-7.430882085599603,1.0991836734693834,51
1764363076.5767877,215601,1.1486,36.27,-7.8241102414561725,1.1491836734693877,53
1764363076.681024,215701,1.1486,36.04,-7.8241102414561725,0.9191836734693837,52
1764363076.783685,215801,1.1437,35.95,-8.21733839731276,0.8291836734693874,52
1764363076.886261,215901,1.1535,36.22,-7.430882085599603,1.0991836734693834,52
1764363076.9885361,216001,1.1486,36.27,-7.8241102414561725,1.1491836734693877,52
1764363077.090866,216101,1.1535,36.72,-7.430882085599603,1.5991836734693834,52
1764363077.1931987,216201,1.1535,36.72,-7.430882085599603,1.5991836734693834,52
1764363077.2958305,216301,1.1486,36.72,-7.8241102414561725,1.5991836734693834,52
1764363077.3995302,216401,1.1535,36.68,-7.430882085599603,1.5591836734693842,52
1764363077.5016797,216501,1.1535,36.22,-7.430882085599603,1.0991836734693834,52
1764363077.6034427,216601,1.1486,36.13,-7.8241102414561725,1.009183673469387,51
1764363077.7061546,216701,1.1535,36.45,-7.430882085599603,1.3291836734693874,50
1764363077.80886,216801,1.1535,36.45,-7.430882085599603,1.3291836734693874,50
1764363077.911253,216901,1.1535,36.18,-7.430882085599603,1.0591836734693842,49
1764363078.0138183,217001,1.1535,36.4,-7.430882085599603,1.279183673469383,48
1764363078.1171532,217101,1.1535,36.72,-7.430882085599603,1.5991836734693834,48
1764363078.21913,217201,1.1535,36.72,-7.430882085599603,1.5991836734693834,48
1764363078.3214338,217301,1.1486,36.13,-7.8241102414561725,1.009183673469387,48
1764363078.4239755,217401,1.1486,36.18,-7.8241102414561725,1.0591836734693842,48
1764363078.5266862,217501,1.1437,36.09,-8.21733839731276,0.9691836734693879,48
1764363078.6288042,217601,1.1437,36.45,-8.21733839731276,1.3291836734693874,48
1764363078.7325428,217701,1.1486,36.4,-7.8241102414561725,1.279183673469383,48
1764363078.8345141,217801,1.1535,36.45,-7.430882085599603,1.3291836734693874,48
1764363078.9364293,217901,1.1486,36.31,-7.8241102414561725,1.1891836734693868,48
1764363079.0386379,218001,1.1535,36.22,-7.430882085599603,1.0991836734693834,48
1764363079.1406157,218101,1.1681,36.63,-6.259222682435111,1.509183673469387,48
1764363079.2437103,218201,1.1535,36.22,-7.430882085599603,1.0991836734693834,48
1764363079.346408,218301,1.1535,36.77,-7.430882085599603,1.6491836734693877,48
1764363079.4490573,218401,1.1437,36.18,-8.21733839731276,1.0591836734693842,48
1764363079.5510626,218501,1.1486,36.27,-7.8241102414561725,1.1491836734693877,48
1764363079.653124,218601,1.1584,36.58,-7.037653929743016,1.4591836734693828,48
1764363079.7564287,218701,1.1486,36.31,-7.8241102414561725,1.1891836734693868,48
1764363079.85944,218801,1.1535,36.45,-7.430882085599603,1.3291836734693874,48
1764363079.9615185,218901,1.1535,36.58,-7.430882085599603,1.4591836734693828,48
1764363080.0651317,219001,1.1535,36.68,-7.430882085599603,1.5591836734693842,48
1764363080.167413,219101,1.1535,36.72,-7.430882085599603,1.5991836734693834,47
1764363080.269396,219201,1.1535,36.4,-7.430882085599603,1.279183673469383,46
1764363080.371251,219301,1.1535,36.22,-7.430882085599603,1.0991836734693834,44
1764363080.473751,219401,1.1535,36.58,-7.430882085599603,1.4591836734693828,43
1764363080.5759914,219501,1.1486,36.27,-7.8241102414561725,1.1491836734693877,41
1764363080.679072,219601,1.1486,36.18,-7.8241102414561725,1.0591836734693842,41
1764363080.7823293,219701,1.1486,36.27,-7.8241102414561725,1.1491836734693877,40
1764363080.884339,219801,1.1486,36.45,-7.8241102414561725,1.3291836734693874,40
1764363080.9866626,219901,1.1486,36.45,-7.8241102414561725,1.3291836734693874,40
1764363081.089702,220001,1.1535,36.22,-7.430882085599603,1.0991836734693834,40
1764363081.1921663,220101,1.1486,36.4,-7.8241102414561725,1.279183673469383,40
1764363081.2942412,220201,1.1535,36.22,-7.430882085599603,1.0991836734693834,40
1764363081.3983212,220301,1.1535,36.36,-7.430882085599603,1.239183673469384,40
1764363081.500479,220401,1.1486,36.27,-7.8241102414561725,1.1491836734693877,40
1764363081.6027753,220501,1.1535,36.4,-7.430882085599603,1.279183673469383,40
1764363081.7049422,220601,1.1486,36.31,-7.8241102414561725,1.1891836734693868,40
1764363081.807157,220701,1.1486,36.58,-7.8241102414561725,1.4591836734693828,40
1764363081.9096127,220801,1.1486,36.54,-7.8241102414561725,1.4191836734693837,40
1764363082.0172925,220901,1.1486,36.49,-7.8241102414561725,1.3691836734693865,40
1764363082.1191683,221001,1.1535,36.36,-7.430882085599603,1.239183673469384,40
1764363082.221452,221101,1.1486,36.13,-7.8241102414561725,1.009183673469387,40
1764363082.3242314,221201,1.1437,36.27,-8.21733839731276,1.1491836734693877,40
1764363082.4264364,221301,1.1486,36.72,-7.8241102414561725,1.5991836734693834,40
1764363082.5291007,221401,1.1486,36.22,-7.8241102414561725,1.0991836734693834,40
1764363082.6316037,221501,1.1486,36.18,-7.8241102414561725,1.0591836734693842,40
1764363082.7336411,221601,1.1486,36.72,-7.8241102414561725,1.5991836734693834,40
1764363082.8358574,221701,1.1486,36.63,-7.8241102414561725,1.509183673469387,40
1764363082.9380887,221801,1.1486,36.49,-7.8241102414561725,1.3691836734693865,43
1764363083.0408592,221901,1.1535,36.77,-7.430882085599603,1.6491836734693877,47
1764363083.1432807,222001,1.1486,36.4,-7.8241102414561725,1.279183673469383,51
1764363083.2458537,222101,1.1437,36.13,-8.21733839731276,1.009183673469387,54
1764363083.348519,222201,1.1486,36.31,-7.8241102414561725,1.1891836734693868,58
1764363083.450633,222301,1.1535,36.04,-7.430882085599603,0.9191836734693837,58
1764363083.5525665,222401,1.1486,36.63,-7.8241102414561725,1.509183673469387,58
1764363083.6557143,222501,1.1535,36.72,-7.430882085599603,1.5991836734693834,57
1764363083.7582922,222601,1.1486,36.22,-7.8241102414561725,1.0991836734693834,56
1764363083.8611343,222701,1.1486,36.22,-7.8241102414561725,1.0991836734693834,55
1764363083.9639955,222801,1.1486,36.72,-7.8241102414561725,1.5991836734693834,54
1764363084.0668192,222901,1.1486,36.18,-7.8241102414561725,1.0591836734693842,54
1764363084.1688447,223001,1.1437,36.04,-8.21733839731276,0.9191836734693837,53
1764363084.2708366,223101,1.1584,36.63,-7.037653929743016,1.509183673469387,53
1764363084.3733375,223201,1.1584,36.63,-7.037653929743016,1.509183673469387,53
1764363084.4767773,223301,1.1535,36.4,-7.430882085599603,1.279183673469383,55
1764363084.579788,223401,1.1486,36.18,-7.8241102414561725,1.0591836734693842,56
1764363084.682526,223501,1.1584,36.54,-7.037653929743016,1.4191836734693837,57
1764363084.7843437,223601,1.1486,36.63,-7.8241102414561725,1.509183673469387,58
1764363084.8861074,223701,1.1535,36.63,-7.430882085599603,1.509183673469387,60
1764363084.9884794,223801,1.1535,36.63,-7.430882085599603,1.509183673469387,60
1764363085.090717,223901,1.1486,36.31,-7.8241102414561725,1.1891836734693868,59
1764363085.192819,224001,1.1535,36.13,-7.430882085599603,1.009183673469387,58
1764363085.2956526,224101,1.1535,36.31,-7.430882085599603,1.1891836734693868,58
1764363085.39828,224201,1.1535,36.72,-7.430882085599603,1.5991836734693834,57
1764363085.5004916,224301,1.1535,36.31,-7.430882085599603,1.1891836734693868,57
1764363085.602937,224401,1.1535,36.22,-7.430882085599603,1.0991836734693834,57
1764363085.7054994,224501,1.1535,36.22,-7.430882085599603,1.0991836734693834,57
1764363085.8077586,224601,1.1486,36.22,-7.8241102414561725,1.0991836734693834,58
1764363085.9101453,224701,1.1437,36.36,-8.21733839731276,1.239183673469384,59
1764363086.0143793,224801,1.1535,36.68,-7.430882085599603,1.5591836734693842,60
1764363086.116298,224901,1.1535,36.18,-7.430882085599603,1.0591836734693842,61
1764363086.2184985,225001,1.1486,36.22,-7.8241102414561725,1.0991836734693834,62
1764363086.320852,225101,1.1486,36.27,-7.8241102414561725,1.1491836734693877,63
1764363086.422986,225201,1.1486,36.72,-7.8241102414561725,1.5991836734693834,64
1764363086.5256379,225301,1.1437,36.13,-8.21733839731276,1.009183673469387,65
1764363086.6281807,225401,1.1486,36.18,-7.8241102414561725,1.0591836734693842,66
1764363086.73042,225501,1.1584,36.68,-7.037653929743016,1.5591836734693842,67
1764363086.8322046,225601,1.1535,36.68,-7.430882085599603,1.5591836734693842,69
1764363086.9348059,225701,1.1584,36.63,-7.037653929743016,1.509183673469387,69
1764363087.0374513,225801,1.1535,36.45,-7.430882085599603,1.3291836734693874,69
1764363087.1398587,225901,1.1535,36.54,-7.430882085599603,1.4191836734693837,69
1764363087.2457173,226001,1.1535,36.54,-7.430882085599603,1.4191836734693837,67
1764363087.3475392,226101,1.1486,36.27,-7.8241102414561725,1.1491836734693877,63
1764363087.4500892,226201,1.1535,36.63,-7.430882085599603,1.509183673469387,60
1764363087.552296,226301,1.1535,36.4,-7.430882085599603,1.279183673469383,60
1764363087.6553805,226401,1.1486,36.18,-7.8241102414561725,1.0591836734693842,60
1764363087.7578967,226501,1.1486,36.72,-7.8241102414561725,1.5991836734693834,63
1764363087.8610437,226601,1.1486,36.45,-7.8241102414561725,1.3291836734693874,66
1764363087.9635139,226701,1.1535,36.81,-7.430882085599603,1.6891836734693868,70
1764363088.065698,226801,1.1535,36.72,-7.430882085599603,1.5991836734693834,71
1764363088.1678233,226901,1.1486,36.13,-7.8241102414561725,1.009183673469387,72
1764363088.270067,227001,1.1535,36.36,-7.430882085599603,1.239183673469384,72
1764363088.3727884,227101,1.1486,36.49,-7.8241102414561725,1.3691836734693865,71
1764363088.4766266,227201,1.1535,36.63,-7.430882085599603,1.509183673469387,70
1764363088.5786986,227301,1.1535,36.4,-7.430882085599603,1.279183673469383,69
1764363088.6809912,227401,1.1339,35.86,-9.003794709025916,0.739183673469384,69
1764363088.7834067,227501,1.1486,36.49,-7.8241102414561725,1.3691836734693865,69
1764363088.8855703,227601,1.1486,36.4,-7.8241102414561725,1.279183673469383,69
1764363088.9879339,227701,1.1486,36.4,-7.8241102414561725,1.279183673469383,68
1764363089.090805,227801,1.1535,36.63,-7.430882085599603,1.509183673469387,66
1764363089.194714,227901,1.1535,36.4,-7.430882085599603,1.279183673469383,65
1764363089.297329,228001,1.1584,36.49,-7.037653929743016,1.3691836734693865,64
1764363089.3996181,228101,1.1535,36.13,-7.430882085599603,1.009183673469387,63
1764363089.5016537,228201,1.1584,36.72,-7.037653929743016,1.5991836734693834,63
1764363089.6039767,228301,1.1486,36.54,-7.8241102414561725,1.4191836734693837,63
1764363089.7086308,228401,1.1535,36.58,-7.430882085599603,1.4591836734693828,63
1764363089.8115053,228501,1.1486,36.18,-7.8241102414561725,1.0591836734693842,63
1764363089.9142373,228601,1.1388,36.31,-8.61056655316933,1.1891836734693868,64
1764363090.0165253,228701,1.1486,36.31,-7.8241102414561725,1.1891836734693868,64
1764363090.1190848,228801,1.1535,36.45,-7.430882085599603,1.3291836734693874,65
1764363090.2213275,228901,1.1584,36.68,-7.037653929743016,1.5591836734693842,66
1764363090.3235679,229001,1.1535,36.45,-7.430882085599603,1.3291836734693874,67
1764363090.426496,229101,1.1535,36.18,-7.430882085599603,1.0591836734693842,68
1764363090.5283313,229201,1.1388,36.18,-8.61056655316933,1.0591836734693842,68
1764363090.6305614,229301,1.1486,36.36,-7.8241102414561725,1.239183673469384,68
1764363090.7328584,229401,1.1486,36.27,-7.8241102414561725,1.1491836734693877,68
1764363090.834864,229501,1.1486,36.13,-7.8241102414561725,1.009183673469387,68
1764363090.937233,229601,1.1535,36.18,-7.430882085599603,1.0591836734693842,68
1764363091.040261,229701,1.1486,36.36,-7.8241102414561725,1.239183673469384,69
1764363091.143147,229801,1.1486,36.68,-7.8241102414561725,1.5591836734693842,69
1764363091.2449448,229901,1.1486,36.18,-7.8241102414561725,1.0591836734693842,70
1764363091.3474944,230001,1.1486,36.4,-7.8241102414561725,1.279183673469383,72
1764363091.450387,230101,1.1486,36.4,-7.8241102414561725,1.279183673469383,72
1764363091.5522485,230201,1.1486,36.13,-7.8241102414561725,1.009183673469387,72
1764363091.654917,230301,1.1535,36.58,-7.430882085599603,1.4591836734693828,72
1764363091.757748,230401,1.1535,36.68,-7.430882085599603,1.5591836734693842,71
1764363091.8600607,230501,1.1486,36.58,-7.8241102414561725,1.4591836734693828,71
1764363091.9622025,230601,1.1486,36.22,-7.8241102414561725,1.0991836734693834,72
1764363092.0641506,230701,1.1486,36.4,-7.8241102414561725,1.279183673469383,74
1764363092.1668673,230801,1.1486,36.63,-7.8241102414561725,1.509183673469387,75
1764363092.2691314,230901,1.1535,36.63,-7.430882085599603,1.509183673469387,76
1764363092.3716815,231001,1.1584,36.63,-7.037653929743016,1.509183673469387,75
1764363092.474403,231101,1.1486,36.49,-7.8241102414561725,1.3691836734693865,74
1764363092.5765953,231201,1.1486,36.31,-7.8241102414561725,1.1891836734693868,73
1764363092.6787727,231301,1.1486,36.49,-7.8241102414561725,1.3691836734693865,72
1764363092.781932,231401,1.1486,36.54,-7.8241102414561725,1.4191836734693837,72
1764363092.8842852,231501,1.1437,36.18,-8.21733839731276,1.0591836734693842,72
1764363092.98689,231601,1.1388,36.22,-8.61056655316933,1.0991836734693834,72
1764363093.0903766,231701,1.1388,36.13,-8.61056655316933,1.009183673469387,72
1764363093.1923037,231801,1.1486,36.45,-7.8241102414561725,1.3291836734693874,72
1764363093.2939835,231901,1.1584,36.58,-7.037653929743016,1.4591836734693828,71
1764363093.396226,232001,1.1486,36.18,-7.8241102414561725,1.0591836734693842,71
1764363093.4989157,232101,1.1486,36.58,-7.8241102414561725,1.4591836734693828,70
1764363093.601673,232201,1.1437,36.18,-8.21733839731276,1.0591836734693842,70
1764363093.7040927,232301,1.1388,36.27,-8.61056655316933,1.1491836734693877,70
1764363093.8078525,232401,1.1486,36.49,-7.8241102414561725,1.3691836734693865,69
1764363093.9103305,232501,1.1486,36.13,-7.8241102414561725,1.009183673469387,69
1764363094.0127368,232601,1.1535,36.72,-7.430882085599603,1.5991836734693834,68
1764363094.1153846,232701,1.1535,36.72,-7.430882085599603,1.5991836734693834,68
1764363094.217368,232801,1.1486,36.22,-7.8241102414561725,1.0991836734693834,68
1764363094.3201168,232901,1.1486,36.68,-7.8241102414561725,1.5591836734693842,68
1764363094.423268,233001,1.1535,36.68,-7.430882085599603,1.5591836734693842,69
1764363094.5263557,233101,1.1535,36.49,-7.430882085599603,1.3691836734693865,70
1764363094.628305,233201,1.1584,36.58,-7.037653929743016,1.4591836734693828,71
1764363094.7308218,233301,1.1584,36.72,-7.037653929743016,1.5991836734693834,71
1764363094.832833,233401,1.1584,36.68,-7.037653929743016,1.5591836734693842,73
1764363094.935201,233501,1.1535,36.36,-7.430882085599603,1.239183673469384,75
1764363095.0410814,233601,1.1486,36.13,-7.8241102414561725,1.009183673469387,75
1764363095.143522,233701,1.1535,36.68,-7.430882085599603,1.5591836734693842,75
1764363095.2461128,233801,1.1535,36.31,-7.430882085599603,1.1891836734693868,75
1764363095.3485994,233901,1.1584,36.58,-7.037653929743016,1.4591836734693828,73
1764363095.4512286,234001,1.1486,36.31,-7.8241102414561725,1.1891836734693868,72
1764363095.553287,234101,1.1486,36.18,-7.8241102414561725,1.0591836734693842,72
1764363095.6565242,234201,1.1486,36.54,-7.8241102414561725,1.4191836734693837,72
1764363095.7588825,234301,1.1486,36.45,-7.8241102414561725,1.3291836734693874,72
1764363095.8608437,234401,1.1388,36.4,-8.61056655316933,1.279183673469383,72
1764363095.9630935,234501,1.1486,36.18,-7.8241102414561725,1.0591836734693842,72
1764363096.066424,234601,1.1486,36.31,-7.8241102414561725,1.1891836734693868,72
1764363096.1688457,234701,1.1486,36.36,-7.8241102414561725,1.239183673469384,73
1764363096.2719684,234801,1.1486,36.72,-7.8241102414561725,1.5991836734693834,74
1764363096.3744242,234901,1.1486,36.72,-7.8241102414561725,1.5991836734693834,76
1764363096.476577,235001,1.1486,36.18,-7.8241102414561725,1.0591836734693842,77
1764363096.578725,235101,1.1486,36.72,-7.8241102414561725,1.5991836734693834,78
1764363096.6813023,235201,1.1486,36.22,-7.8241102414561725,1.0991836734693834,78
1764363096.7836003,235301,1.1486,36.68,-7.8241102414561725,1.5591836734693842,78
1764363096.886887,235401,1.1437,36.4,-8.21733839731276,1.279183673469383,77
1764363096.9893696,235501,1.1486,36.49,-7.8241102414561725,1.3691836734693865,76
1764363097.0914314,235601,1.1486,36.31,-7.8241102414561725,1.1891836734693868,76
1764363097.193628,235701,1.1437,36.13,-8.21733839731276,1.009183673469387,76
1764363097.2955968,235801,1.1486,36.31,-7.8241102414561725,1.1891836734693868,76
1764363097.3982584,235901,1.1486,36.31,-7.8241102414561725,1.1891836734693868,76
1764363097.5006795,236001,1.1486,36.27,-7.8241102414561725,1.1491836734693877,77
1764363097.6048665,236101,1.1535,36.36,-7.430882085599603,1.239183673469384,78
1764363097.7070353,236201,1.1535,36.68,-7.430882085599603,1.5591836734693842,78
1764363097.8176994,236301,1.1535,36.49,-7.430882085599603,1.3691836734693865,79
1764363097.9234126,236401,1.1535,36.36,-7.430882085599603,1.239183673469384,80
1764363098.0257194,236501,1.1486,36.22,-7.8241102414561725,1.0991836734693834,77
1764363098.127867,236601,1.1486,36.72,-7.8241102414561725,1.5991836734693834,75
1764363098.2299633,236701,1.1486,36.45,-7.8241102414561725,1.3291836734693874,72
1764363098.331722,236801,1.1486,36.27,-7.8241102414561725,1.1491836734693877,69
1764363098.4354408,236901,1.1486,36.22,-7.8241102414561725,1.0991836734693834,66
1764363098.5387557,237001,1.1486,36.4,-7.8241102414561725,1.279183673469383,66
1764363098.6408198,237101,1.1486,36.18,-7.8241102414561725,1.0591836734693842,66
1764363098.7430935,237201,1.1486,36.31,-7.8241102414561725,1.1891836734693868,66
1764363098.8454154,237301,1.1535,36.68,-7.430882085599603,1.5591836734693842,66
1764363098.94774,237401,1.1486,36.4,-7.8241102414561725,1.279183673469383,66
